timestamp_us,I_mV,II_mV,III_mV,aVR_mV,aVL_mV,aVF_mV,V1_mV,V2_mV,V3_mV,V4_mV,V5_mV,V6_mV,gain
383977974,0.962400,-5.982590,-6.944990,2.510095,3.953695,-6.463790,-400.000000,-400.000000,-400.000000,-400.000000,-400.000000,-400.000000,6
383979970,0.973654,-5.989075,-6.962729,2.507710,3.968191,-6.475902,-400.000000,-400.000000,-400.000000,-400.000000,-400.000000,-400.000000,6
383981967,0.968218,-6.015968,-6.984186,2.523875,3.976202,-6.500077,-400.000000,-400.000000,-400.000000,-400.000000,-400.000000,-400.000000,6
383983965,0.984430,-6.034565,-7.018995,2.525067,4.001713,-6.526780,-400.000000,-400.000000,-400.000000,-400.000000,-400.000000,-400.000000,6
383985962,0.996447,-6.042910,-7.039356,2.523232,4.017901,-6.541133,-400.000000,-400.000000,-400.000000,-400.000000,-400.000000,-400.000000,6
383987960,1.021242,-6.029654,-7.050896,2.504206,4.036069,-6.540275,-400.000000,-400.000000,-400.000000,-400.000000,-400.000000,-400.000000,6
383989957,1.000166,-6.015730,-7.015896,2.507782,4.008031,-6.515813,-400.000000,-400.000000,-400.000000,-400.000000,-400.000000,-400.000000,6
383991954,0.970173,-5.991888,-6.962061,2.510858,3.966117,-6.476974,-400.000000,-400.000000,-400.000000,-400.000000,-400.000000,-400.000000,6
383993952,0.956249,-5.975437,-6.931686,2.509594,3.943968,-6.453562,-400.000000,-400.000000,-400.000000,-400.000000,-400.000000,-400.000000,6
383995949,0.951195,-5.975294,-6.926489,2.512050,3.938842,-6.450891,-400.000000,-400.000000,-400.000000,-400.000000,-400.000000,-400.000000,6
383997947,0.950766,-5.980825,-6.931591,2.515030,3.941178,-6.456208,-400.000000,-400.000000,-400.000000,-400.000000,-400.000000,-400.000000,6
383999944,0.964069,-5.983400,-6.947470,2.509665,3.955770,-6.465435,-400.000000,-400.000000,-400.000000,-400.000000,-400.000000,-400.000000,6
384001941,0.992680,-5.975962,-6.968641,2.491641,3.980660,-6.472301,-400.000000,-400.000000,-400.000000,-400.000000,-400.000000,-400.000000,6
384003939,1.012373,-5.975056,-6.987429,2.481341,3.999901,-6.481242,-400.000000,-400.000000,-400.000000,-400.000000,-400.000000,-400.000000,6
384005936,1.007128,-5.982447,-6.989574,2.487659,3.998351,-6.486011,-400.000000,-400.000000,-400.000000,-400.000000,-400.000000,-400.000000,6
384007934,1.011467,-5.978441,-6.989908,2.483487,4.000688,-6.484175,-400.000000,-400.000000,-400.000000,-400.000000,-400.000000,-400.000000,6
384009931,1.007557,-5.967474,-6.975031,2.479959,3.991294,-6.471252,-400.000000,-400.000000,-400.000000,-400.000000,-400.000000,-400.000000,6
384011930,0.978041,-5.962181,-6.940222,2.492070,3.959131,-6.451201,-400.000000,-400.000000,-400.000000,-400.000000,-400.000000,-400.000000,6
384013926,0.967407,-5.962467,-6.929874,2.497530,3.948641,-6.446171,-400.000000,-400.000000,-400.000000,-400.000000,-400.000000,-400.000000,6
384015924,0.953817,-5.956936,-6.910753,2.501559,3.932285,-6.433845,-400.000000,-400.000000,-400.000000,-400.000000,-400.000000,-400.000000,6
384017922,0.982666,-5.948162,-6.930828,2.482748,3.956747,-6.439495,-400.000000,-400.000000,-400.000000,-400.000000,-400.000000,-400.000000,6
384019919,1.004887,-5.965281,-6.970167,2.480197,3.987527,-6.467724,-400.000000,-400.000000,-400.000000,-400.000000,-400.000000,-400.000000,6
384021916,1.007318,-5.975246,-6.982565,2.483964,3.994942,-6.478906,-400.000000,-400.000000,-400.000000,-400.000000,-400.000000,-400.000000,6
384023914,1.009846,-5.968618,-6.978464,2.479386,3.994155,-6.473541,-400.000000,-400.000000,-400.000000,-400.000000,-400.000000,-400.000000,6
384025911,1.008129,-5.967426,-6.975555,2.479649,3.991842,-6.471491,-400.000000,-400.000000,-400.000000,-400.000000,-400.000000,-400.000000,6
384027908,1.018572,-5.963898,-6.982470,2.472663,4.000521,-6.473184,-400.000000,-400.000000,-400.000000,-400.000000,-400.000000,-400.000000,6
384029906,0.986242,-5.963326,-6.949568,2.488542,3.967905,-6.456447,-400.000000,-400.000000,-400.000000,-400.000000,-400.000000,-400.000000,6
384031903,0.997210,-5.960560,-6.957769,2.481675,3.977489,-6.459165,-400.000000,-400.000000,-400.000000,-400.000000,-400.000000,-400.000000,6
384033901,0.998878,-5.953836,-6.952715,2.477479,3.975797,-6.453276,-400.000000,-400.000000,-400.000000,-400.000000,-400.000000,-400.000000,6
384035898,0.986004,-5.946493,-6.932497,2.480245,3.959250,-6.439495,-400.000000,-400.000000,-400.000000,-400.000000,-400.000000,-400.000000,6
384037896,0.987864,-5.945063,-6.932926,2.478600,3.960395,-6.438994,-400.000000,-400.000000,-400.000000,-400.000000,-400.000000,-400.000000,6
384039893,1.007032,-5.940390,-6.947422,2.466679,3.977227,-6.443906,-400.000000,-400.000000,-400.000000,-400.000000,-400.000000,-400.000000,6
384041890,1.014090,-5.944586,-6.958675,2.465248,3.986382,-6.451631,-400.000000,-400.000000,-400.000000,-400.000000,-400.000000,-400.000000,6
384043888,1.032877,-5.951357,-6.984234,2.459240,4.008555,-6.467795,-400.000000,-400.000000,-400.000000,-400.000000,-400.000000,-400.000000,6
384045885,1.034880,-5.947876,-6.982756,2.456498,4.008818,-6.465316,-400.000000,-400.000000,-400.000000,-400.000000,-400.000000,-400.000000,6
384047883,1.031590,-5.943680,-6.975269,2.456045,4.003429,-6.459475,-400.000000,-400.000000,-400.000000,-400.000000,-400.000000,-400.000000,6
384049880,1.027155,-5.949354,-6.976509,2.461100,4.001832,-6.462932,-400.000000,-400.000000,-400.000000,-400.000000,-400.000000,-400.000000,6
384051877,1.018095,-5.943489,-6.961584,2.462697,3.989840,-6.452537,-400.000000,-400.000000,-400.000000,-400.000000,-400.000000,-400.000000,6
384053875,1.013184,-5.924320,-6.937504,2.455568,3.975344,-6.430912,-400.000000,-400.000000,-400.000000,-400.000000,-400.000000,-400.000000,6
384055872,0.998354,-5.916405,-6.914759,2.459025,3.956556,-6.415582,-400.000000,-400.000000,-400.000000,-400.000000,-400.000000,-400.000000,6
384057870,1.000738,-5.910540,-6.911278,2.454901,3.956008,-6.410909,-400.000000,-400.000000,-400.000000,-400.000000,-400.000000,-400.000000,6
384059868,1.022339,-5.914068,-6.936407,2.445865,3.979373,-6.425238,-400.000000,-400.000000,-400.000000,-400.000000,-400.000000,-400.000000,6
384061865,1.039457,-5.914688,-6.954145,2.437615,3.996801,-6.434417,-400.000000,-400.000000,-400.000000,-400.000000,-400.000000,-400.000000,6
384063862,1.064205,-5.911493,-6.975698,2.423644,4.019952,-6.443596,-400.000000,-400.000000,-400.000000,-400.000000,-400.000000,-400.000000,6
384065860,1.069307,-5.912495,-6.981802,2.421594,4.025555,-6.447148,-400.000000,-400.000000,-400.000000,-400.000000,-400.000000,-400.000000,6
384067857,1.053286,-5.920601,-6.973886,2.433658,4.013586,-6.447244,-400.000000,-400.000000,-400.000000,-400.000000,-400.000000,-400.000000,6
384069855,1.063395,-5.915165,-6.978559,2.425885,4.020977,-6.446862,-400.000000,-400.000000,-400.000000,-400.000000,-400.000000,-400.000000,6
384071852,1.055908,-5.907202,-6.963110,2.425647,4.009509,-6.435156,-400.000000,-400.000000,-400.000000,-400.000000,-400.000000,-400.000000,6
384073849,1.046610,-5.892086,-6.938696,2.422738,3.992653,-6.415391,-400.000000,-400.000000,-400.000000,-400.000000,-400.000000,-400.000000,6
384075847,1.043272,-5.871582,-6.914854,2.414155,3.979063,-6.393218,-400.000000,-400.000000,-400.000000,-400.000000,-400.000000,-400.000000,6
384077846,1.045752,-5.865288,-6.911039,2.409768,3.978395,-6.388164,-400.000000,-400.000000,-400.000000,-400.000000,-400.000000,-400.000000,6
384079842,1.055574,-5.893898,-6.949472,2.419162,4.002523,-6.421685,-400.000000,-400.000000,-400.000000,-400.000000,-400.000000,-400.000000,6
384081839,1.073694,-5.896425,-6.970119,2.411366,4.021907,-6.433272,-400.000000,-400.000000,-400.000000,-400.000000,-400.000000,-400.000000,6
384083837,1.089001,-5.896664,-6.985664,2.403831,4.037333,-6.441164,-400.000000,-400.000000,-400.000000,-400.000000,-400.000000,-400.000000,6
384085834,1.094532,-5.895281,-6.989813,2.400374,4.042172,-6.442547,-400.000000,-400.000000,-400.000000,-400.000000,-400.000000,-400.000000,6
384087832,1.102018,-5.897570,-6.999588,2.397776,4.050803,-6.448579,-400.000000,-400.000000,-400.000000,-400.000000,-400.000000,-400.000000,6
384089829,1.107597,-5.909872,-7.017469,2.401137,4.062533,-6.463671,-400.000000,-400.000000,-400.000000,-400.000000,-400.000000,-400.000000,6
384091827,1.085949,-5.907822,-6.993771,2.410936,4.039860,-6.450796,-400.000000,-400.000000,-400.000000,-400.000000,-400.000000,-400.000000,6
384093824,1.059389,-5.893993,-6.953382,2.417302,4.006386,-6.423688,-400.000000,-400.000000,-400.000000,-400.000000,-400.000000,-400.000000,6
384095822,1.063490,-5.882835,-6.946325,2.409673,4.004908,-6.414580,-400.000000,-400.000000,-400.000000,-400.000000,-400.000000,-400.000000,6
384097819,1.074934,-5.889606,-6.964540,2.407336,4.019737,-6.427073,-400.000000,-400.000000,-400.000000,-400.000000,-400.000000,-400.000000,6
384099816,1.095247,-5.885410,-6.980658,2.395082,4.037952,-6.433034,-400.000000,-400.000000,-400.000000,-400.000000,-400.000000,-400.000000,6
384101814,1.114559,-5.884695,-6.999254,2.385068,4.056907,-6.441975,-400.000000,-400.000000,-400.000000,-400.000000,-400.000000,-400.000000,6
384103813,1.137972,-5.873585,-7.011557,2.367806,4.074764,-6.442571,-400.000000,-400.000000,-400.000000,-400.000000,-400.000000,-400.000000,6
384105809,1.138115,-5.863047,-7.001162,2.362466,4.069638,-6.432104,-400.000000,-400.000000,-400.000000,-400.000000,-400.000000,-400.000000,6
384107806,1.140928,-5.858231,-6.999159,2.358651,4.070044,-6.428695,-400.000000,-400.000000,-400.000000,-400.000000,-400.000000,-400.000000,6
384109804,1.128626,-5.869627,-6.998253,2.370501,4.063439,-6.433940,-400.000000,-400.000000,-400.000000,-400.000000,-400.000000,-400.000000,6
384111801,1.104403,-5.870342,-6.974745,2.382970,4.039574,-6.422544,-400.000000,-400.000000,-400.000000,-400.000000,-400.000000,-400.000000,6
384113799,1.101208,-5.855751,-6.956959,2.377272,4.029083,-6.406355,-400.000000,-400.000000,-400.000000,-400.000000,-400.000000,-400.000000,6
384115796,1.087189,-5.849409,-6.936598,2.381110,4.011893,-6.393003,-400.000000,-400.000000,-400.000000,-400.000000,-400.000000,-400.000000,6
384117795,1.095581,-5.848598,-6.944180,2.376509,4.019880,-6.396389,-400.000000,-400.000000,-400.000000,-400.000000,-400.000000,-400.000000,6
384119792,1.121426,-5.856037,-6.977463,2.367306,4.049444,-6.416750,-400.000000,-400.000000,-400.000000,-400.000000,-400.000000,-400.000000,6
384121789,1.140022,-5.870724,-7.010746,2.365351,4.075384,-6.440735,-400.000000,-400.000000,-400.000000,-400.000000,-400.000000,-400.000000,6
384123786,1.143551,-5.879545,-7.023096,2.367997,4.083323,-6.451321,-400.000000,-400.000000,-400.000000,-400.000000,-400.000000,-400.000000,6
384125784,1.141500,-5.885649,-7.027149,2.372074,4.084325,-6.456399,-400.000000,-400.000000,-400.000000,-400.000000,-400.000000,-400.000000,6
384127781,1.139498,-5.880785,-7.020283,2.370644,4.079890,-6.450534,-400.000000,-400.000000,-400.000000,-400.000000,-400.000000,-400.000000,6
384129779,1.128674,-5.869818,-6.998491,2.370572,4.063582,-6.434155,-400.000000,-400.000000,-400.000000,-400.000000,-400.000000,-400.000000,6
384131776,1.114321,-5.862761,-6.977081,2.374220,4.045701,-6.419921,-400.000000,-400.000000,-400.000000,-400.000000,-400.000000,-400.000000,6
384133773,1.094437,-5.871677,-6.966114,2.388620,4.030275,-6.418896,-400.000000,-400.000000,-400.000000,-400.000000,-400.000000,-400.000000,6
384135771,1.072693,-5.882359,-6.955051,2.404833,4.013872,-6.418705,-400.000000,-400.000000,-400.000000,-400.000000,-400.000000,-400.000000,6
384137769,1.071405,-5.860806,-6.932211,2.394700,4.001808,-6.396508,-400.000000,-400.000000,-400.000000,-400.000000,-400.000000,-400.000000,6
384139766,1.068640,-5.863667,-6.932306,2.397513,4.000473,-6.397986,-400.000000,-400.000000,-400.000000,-400.000000,-400.000000,-400.000000,6
384141763,1.104498,-5.851173,-6.955671,2.373338,4.030085,-6.403422,-400.000000,-400.000000,-400.000000,-400.000000,-400.000000,-400.000000,6
384143761,1.116753,-5.856991,-6.973743,2.370119,4.045248,-6.415367,-400.000000,-400.000000,-400.000000,-400.000000,-400.000000,-400.000000,6
384145758,1.107121,-5.866194,-6.973314,2.379537,4.040217,-6.419754,-400.000000,-400.000000,-400.000000,-400.000000,-400.000000,-400.000000,6
384147755,1.092911,-5.873728,-6.966639,2.390409,4.029775,-6.420183,-400.000000,-400.000000,-400.000000,-400.000000,-400.000000,-400.000000,6
384149753,1.066875,-5.867815,-6.934690,2.400470,4.000783,-6.401253,-400.000000,-400.000000,-400.000000,-400.000000,-400.000000,-400.000000,6
384151750,1.027489,-5.869532,-6.897020,2.421021,3.962255,-6.383276,-400.000000,-400.000000,-400.000000,-400.000000,-400.000000,-400.000000,6
384153748,1.018953,-5.880070,-6.899023,2.430558,3.958988,-6.389546,-400.000000,-400.000000,-400.000000,-400.000000,-400.000000,-400.000000,6
384155745,1.019287,-5.869818,-6.889105,2.425265,3.954196,-6.379461,-400.000000,-400.000000,-400.000000,-400.000000,-400.000000,-400.000000,6
384157750,1.004648,-5.885458,-6.890106,2.440405,3.947377,-6.387782,-400.000000,-400.000000,-400.000000,-400.000000,-400.000000,-400.000000,6
384159740,1.012182,-5.905819,-6.918001,2.446818,3.965092,-6.411910,-400.000000,-400.000000,-400.000000,-400.000000,-400.000000,-400.000000,6
384161738,1.029205,-5.901289,-6.930494,2.436042,3.979850,-6.415892,-400.000000,-400.000000,-400.000000,-400.000000,-400.000000,-400.000000,6
384163735,1.058531,-5.909157,-6.967688,2.425313,4.013109,-6.438422,-400.000000,-400.000000,-400.000000,-400.000000,-400.000000,-400.000000,6
384165732,1.051521,-5.933857,-6.985378,2.441168,4.018450,-6.459618,-400.000000,-400.000000,-400.000000,-400.000000,-400.000000,-400.000000,6
384167730,1.041269,-5.921078,-6.962347,2.439904,4.001808,-6.441712,-400.000000,-400.000000,-400.000000,-400.000000,-400.000000,-400.000000,6
384169727,1.019287,-5.911016,-6.930304,2.445865,3.974795,-6.420660,-400.000000,-400.000000,-400.000000,-400.000000,-400.000000,-400.000000,6
384171725,0.995684,-5.907488,-6.903172,2.455902,3.949428,-6.405330,-400.000000,-400.000000,-400.000000,-400.000000,-400.000000,-400.000000,6
384173722,0.989103,-5.917740,-6.906843,2.464318,3.947973,-6.412292,-400.000000,-400.000000,-400.000000,-400.000000,-400.000000,-400.000000,6
384175720,0.976992,-5.922079,-6.899071,2.472544,3.938031,-6.410575,-400.000000,-400.000000,-400.000000,-400.000000,-400.000000,-400.000000,6
384177718,0.983620,-5.930948,-6.914568,2.473664,3.949094,-6.422758,-400.000000,-400.000000,-400.000000,-400.000000,-400.000000,-400.000000,6
384179715,0.997496,-5.954695,-6.952190,2.478600,3.974843,-6.453443,-400.000000,-400.000000,-400.000000,-400.000000,-400.000000,-400.000000,6
384181712,0.980759,-5.967426,-6.948185,2.493334,3.964472,-6.457806,-400.000000,-400.000000,-400.000000,-400.000000,-400.000000,-400.000000,6
384183709,1.018333,-5.976772,-6.995106,2.479219,4.006720,-6.485939,-400.000000,-400.000000,-400.000000,-400.000000,-400.000000,-400.000000,6
384185707,1.039982,-5.991364,-7.031345,2.475691,4.035664,-6.511354,-400.000000,-400.000000,-400.000000,-400.000000,-400.000000,-400.000000,6
384187704,1.014757,-5.999804,-7.014561,2.492523,4.014659,-6.507182,-400.000000,-400.000000,-400.000000,-400.000000,-400.000000,-400.000000,6
384189702,1.005125,-5.979204,-6.984329,2.487040,3.994727,-6.481767,-400.000000,-400.000000,-400.000000,-400.000000,-400.000000,-400.000000,6
384191699,0.999165,-5.968237,-6.967402,2.484536,3.983283,-6.467819,-400.000000,-400.000000,-400.000000,-400.000000,-400.000000,-400.000000,6
384193697,0.980711,-5.979490,-6.960201,2.499390,3.970456,-6.469846,-400.000000,-400.000000,-400.000000,-400.000000,-400.000000,-400.000000,6
384195694,0.954008,-5.983448,-6.937456,2.514720,3.945732,-6.460452,-400.000000,-400.000000,-400.000000,-400.000000,-400.000000,-400.000000,6
384197698,0.947666,-5.993509,-6.941175,2.522922,3.944421,-6.467342,-400.000000,-400.000000,-400.000000,-400.000000,-400.000000,-400.000000,6
384199689,0.989199,-5.998850,-6.988049,2.504826,3.988624,-6.493449,-400.000000,-400.000000,-400.000000,-400.000000,-400.000000,-400.000000,6
384201686,1.013517,-5.995321,-7.008839,2.490902,4.011178,-6.502080,-400.000000,-400.000000,-400.000000,-400.000000,-400.000000,-400.000000,6
384203684,1.015711,-6.009483,-7.025194,2.496886,4.020452,-6.517339,-400.000000,-400.000000,-400.000000,-400.000000,-400.000000,-400.000000,6
384205681,1.004124,-6.041098,-7.045221,2.518487,4.024673,-6.543159,-400.000000,-400.000000,-400.000000,-400.000000,-400.000000,-400.000000,6
384207679,1.014662,-6.024218,-7.038879,2.504778,4.026771,-6.531549,-400.000000,-400.000000,-400.000000,-400.000000,-400.000000,-400.000000,6
384209676,1.009846,-6.003141,-7.012987,2.496648,4.011416,-6.508064,-400.000000,-400.000000,-400.000000,-400.000000,-400.000000,-400.000000,6
384211674,0.974655,-6.002998,-6.977654,2.514172,3.976154,-6.490326,-400.000000,-400.000000,-400.000000,-400.000000,-400.000000,-400.000000,6
384213671,0.953245,-5.997276,-6.950521,2.522016,3.951883,-6.473899,-400.000000,-400.000000,-400.000000,-400.000000,-400.000000,-400.000000,6
384215669,0.963688,-5.984259,-6.947947,2.510285,3.955817,-6.466103,-400.000000,-400.000000,-400.000000,-400.000000,-400.000000,-400.000000,6
384217669,0.949383,-5.989552,-6.938934,2.520084,3.944159,-6.464243,-400.000000,-400.000000,-400.000000,-400.000000,-400.000000,-400.000000,6
384219665,0.981522,-6.001472,-6.982994,2.509975,3.982258,-6.492233,-400.000000,-400.000000,-400.000000,-400.000000,-400.000000,-400.000000,6
384221662,1.008987,-5.990791,-6.999779,2.490902,4.004383,-6.495285,-400.000000,-400.000000,-400.000000,-400.000000,-400.000000,-400.000000,6
384223659,1.017237,-5.996418,-7.013655,2.489591,4.015446,-6.505036,-400.000000,-400.000000,-400.000000,-400.000000,-400.000000,-400.000000,6
384225657,1.020145,-6.012964,-7.033110,2.496409,4.026628,-6.523037,-400.000000,-400.000000,-400.000000,-400.000000,-400.000000,-400.000000,6
384227654,1.024866,-6.018972,-7.043839,2.497053,4.034352,-6.531405,-400.000000,-400.000000,-400.000000,-400.000000,-400.000000,-400.000000,6
384229651,0.993013,-6.022358,-7.015371,2.514672,4.004192,-6.518865,-400.000000,-400.000000,-400.000000,-400.000000,-400.000000,-400.000000,6
384231649,0.976229,-5.995035,-6.971264,2.509403,3.973746,-6.483150,-400.000000,-400.000000,-400.000000,-400.000000,-400.000000,-400.000000,6
384233646,0.971746,-5.979395,-6.951141,2.503824,3.961444,-6.465268,-400.000000,-400.000000,-400.000000,-400.000000,-400.000000,-400.000000,6
384235644,0.951195,-5.948400,-6.899595,2.498603,3.925395,-6.423998,-400.000000,-400.000000,-400.000000,-400.000000,-400.000000,-400.000000,6
384237641,0.954342,-5.934668,-6.889009,2.490163,3.921676,-6.411839,-400.000000,-400.000000,-400.000000,-400.000000,-400.000000,-400.000000,6
384239639,0.972080,-5.960321,-6.932402,2.494121,3.952241,-6.446362,-400.000000,-400.000000,-400.000000,-400.000000,-400.000000,-400.000000,6
384241636,1.005840,-5.974340,-6.980181,2.484250,3.993011,-6.477261,-400.000000,-400.000000,-400.000000,-400.000000,-400.000000,-400.000000,6
384243634,1.020765,-5.978680,-6.999445,2.478957,4.010105,-6.489062,-400.000000,-400.000000,-400.000000,-400.000000,-400.000000,-400.000000,6
384245631,1.022243,-5.987263,-7.009506,2.482510,4.015875,-6.498384,-400.000000,-400.000000,-400.000000,-400.000000,-400.000000,-400.000000,6
384247629,1.023674,-5.988979,-7.012653,2.482653,4.018164,-6.500816,-400.000000,-400.000000,-400.000000,-400.000000,-400.000000,-400.000000,6
384249626,1.012135,-5.981970,-6.994104,2.484918,4.003119,-6.488037,-400.000000,-400.000000,-400.000000,-400.000000,-400.000000,-400.000000,6
384251624,0.980186,-5.985546,-6.965733,2.502680,3.972960,-6.475639,-400.000000,-400.000000,-400.000000,-400.000000,-400.000000,-400.000000,6
384253621,0.969887,-5.967855,-6.937742,2.498984,3.953815,-6.452799,-400.000000,-400.000000,-400.000000,-400.000000,-400.000000,-400.000000,6
384255619,0.962782,-5.950642,-6.913424,2.493930,3.938103,-6.432033,-400.000000,-400.000000,-400.000000,-400.000000,-400.000000,-400.000000,6
384257617,0.964165,-5.958891,-6.923056,2.497363,3.943610,-6.440973,-400.000000,-400.000000,-400.000000,-400.000000,-400.000000,-400.000000,6
384259613,0.982046,-5.958843,-6.940889,2.488399,3.961468,-6.449866,-400.000000,-400.000000,-400.000000,-400.000000,-400.000000,-400.000000,6
384261611,1.005125,-5.954790,-6.959915,2.474833,3.982520,-6.457353,-400.000000,-400.000000,-400.000000,-400.000000,-400.000000,-400.000000,6
384263608,1.020241,-5.963421,-6.983662,2.471590,4.001951,-6.473541,-400.000000,-400.000000,-400.000000,-400.000000,-400.000000,-400.000000,6
384265606,1.024389,-5.973005,-6.997395,2.474308,4.010892,-6.485200,-400.000000,-400.000000,-400.000000,-400.000000,-400.000000,-400.000000,6
384267603,1.019764,-5.970860,-6.990623,2.475548,4.005194,-6.480742,-400.000000,-400.000000,-400.000000,-400.000000,-400.000000,-400.000000,6
384269601,1.003456,-5.949211,-6.952667,2.472878,3.978062,-6.450939,-400.000000,-400.000000,-400.000000,-400.000000,-400.000000,-400.000000,6
384271598,0.993681,-5.931330,-6.925011,2.468824,3.959346,-6.428170,-400.000000,-400.000000,-400.000000,-400.000000,-400.000000,-400.000000,6
384273596,0.980425,-5.918837,-6.899261,2.469206,3.939843,-6.409049,-400.000000,-400.000000,-400.000000,-400.000000,-400.000000,-400.000000,6
384275593,0.969362,-5.920935,-6.890297,2.475786,3.929830,-6.405616,-400.000000,-400.000000,-400.000000,-400.000000,-400.000000,-400.000000,6
384277592,0.968456,-5.926800,-6.895256,2.479172,3.931856,-6.411028,-400.000000,-400.000000,-400.000000,-400.000000,-400.000000,-400.000000,6
384279589,0.966597,-5.930758,-6.897354,2.482080,3.931975,-6.414056,-400.000000,-400.000000,-400.000000,-400.000000,-400.000000,-400.000000,6
384281586,1.002264,-5.943727,-6.945992,2.470732,3.974128,-6.444860,-400.000000,-400.000000,-400.000000,-400.000000,-400.000000,-400.000000,6
384283583,1.034307,-5.959129,-6.993437,2.462411,4.013872,-6.476283,-400.000000,-400.000000,-400.000000,-400.000000,-400.000000,-400.000000,6
384285581,1.031685,-5.987120,-7.018805,2.477717,4.025245,-6.502962,-400.000000,-400.000000,-400.000000,-400.000000,-400.000000,-400.000000,6
384287579,1.031351,-5.981302,-7.012653,2.474976,4.022002,-6.496978,-400.000000,-400.000000,-400.000000,-400.000000,-400.000000,-400.000000,6
384289576,1.032114,-5.961990,-6.994104,2.464938,4.013109,-6.478047,-400.000000,-400.000000,-400.000000,-400.000000,-400.000000,-400.000000,6
384291573,1.018524,-5.943680,-6.962204,2.462578,3.990364,-6.452942,-400.000000,-400.000000,-400.000000,-400.000000,-400.000000,-400.000000,6
384293571,0.997257,-5.922508,-6.919765,2.462626,3.958511,-6.421137,-400.000000,-400.000000,-400.000000,-400.000000,-400.000000,-400.000000,6
384295568,0.980616,-5.904102,-6.884718,2.461743,3.932667,-6.394410,-400.000000,-400.000000,-400.000000,-400.000000,-400.000000,-400.000000,6
384297567,0.975370,-5.909157,-6.884527,2.466893,3.929949,-6.396842,-400.000000,-400.000000,-400.000000,-400.000000,-400.000000,-400.000000,6
384299563,0.987339,-5.923414,-6.910753,2.468038,3.949046,-6.417084,-400.000000,-400.000000,-400.000000,-400.000000,-400.000000,-400.000000,6
384301561,0.982046,-5.919838,-6.901884,2.468896,3.941965,-6.410861,-400.000000,-400.000000,-400.000000,-400.000000,-400.000000,-400.000000,6
384303558,1.021338,-5.928612,-6.949949,2.453637,3.985643,-6.439281,-400.000000,-400.000000,-400.000000,-400.000000,-400.000000,-400.000000,6
384305556,1.051474,-5.944109,-6.995583,2.446318,4.023528,-6.469846,-400.000000,-400.000000,-400.000000,-400.000000,-400.000000,-400.000000,6
384307553,1.040697,-5.946255,-6.986952,2.452779,4.013824,-6.466603,-400.000000,-400.000000,-400.000000,-400.000000,-400.000000,-400.000000,6
384309551,1.029015,-5.935144,-6.964159,2.453065,3.996587,-6.449652,-400.000000,-400.000000,-400.000000,-400.000000,-400.000000,-400.000000,6
384311548,1.013279,-5.926323,-6.939602,2.456522,3.976440,-6.432962,-400.000000,-400.000000,-400.000000,-400.000000,-400.000000,-400.000000,6
384313546,0.994492,-5.916500,-6.910992,2.461004,3.952742,-6.413746,-400.000000,-400.000000,-400.000000,-400.000000,-400.000000,-400.000000,6
384315543,0.989532,-5.898952,-6.888485,2.454710,3.939009,-6.393719,-400.000000,-400.000000,-400.000000,-400.000000,-400.000000,-400.000000,6
384317541,0.996113,-5.894899,-6.891012,2.449393,3.943563,-6.392956,-400.000000,-400.000000,-400.000000,-400.000000,-400.000000,-400.000000,6
384319538,1.014042,-5.904913,-6.918955,2.445436,3.966498,-6.411934,-400.000000,-400.000000,-400.000000,-400.000000,-400.000000,-400.000000,6
384321536,1.024628,-5.922365,-6.946993,2.448869,3.985810,-6.434679,-400.000000,-400.000000,-400.000000,-400.000000,-400.000000,-400.000000,6
384323533,1.018190,-5.935287,-6.953478,2.458549,3.985834,-6.444383,-400.000000,-400.000000,-400.000000,-400.000000,-400.000000,-400.000000,6
384325531,1.015568,-5.924749,-6.940317,2.454591,3.977942,-6.432533,-400.000000,-400.000000,-400.000000,-400.000000,-400.000000,-400.000000,6
384327528,1.021433,-5.930567,-6.952000,2.454567,3.986716,-6.441283,-400.000000,-400.000000,-400.000000,-400.000000,-400.000000,-400.000000,6
384329525,0.994253,-5.950117,-6.944370,2.477932,3.969312,-6.447244,-400.000000,-400.000000,-400.000000,-400.000000,-400.000000,-400.000000,6
384331523,0.994587,-5.949593,-6.944180,2.477503,3.969383,-6.446886,-400.000000,-400.000000,-400.000000,-400.000000,-400.000000,-400.000000,6
384333520,1.003790,-5.933857,-6.937647,2.465034,3.970718,-6.435752,-400.000000,-400.000000,-400.000000,-400.000000,-400.000000,-400.000000,6
384335518,0.997496,-5.921793,-6.919289,2.462149,3.958392,-6.420541,-400.000000,-400.000000,-400.000000,-400.000000,-400.000000,-400.000000,6
384337516,0.990105,-5.943251,-6.933355,2.476573,3.961730,-6.438303,-400.000000,-400.000000,-400.000000,-400.000000,-400.000000,-400.000000,6
384339513,0.990629,-5.953455,-6.944084,2.481413,3.967357,-6.448770,-400.000000,-400.000000,-400.000000,-400.000000,-400.000000,-400.000000,6
384341510,1.011896,-5.951881,-6.963778,2.469993,3.987837,-6.457829,-400.000000,-400.000000,-400.000000,-400.000000,-400.000000,-400.000000,6
384343507,1.030111,-5.947876,-6.977987,2.458882,4.004049,-6.462932,-400.000000,-400.000000,-400.000000,-400.000000,-400.000000,-400.000000,6
384345505,1.027822,-5.959654,-6.987476,2.465916,4.007649,-6.473565,-400.000000,-400.000000,-400.000000,-400.000000,-400.000000,-400.000000,6
384347502,1.042509,-5.974007,-7.016516,2.465749,4.029512,-6.495261,-400.000000,-400.000000,-400.000000,-400.000000,-400.000000,-400.000000,6
384349499,1.009560,-5.968523,-6.978083,2.479482,3.993821,-6.473303,-400.000000,-400.000000,-400.000000,-400.000000,-400.000000,-400.000000,6
384351497,0.986004,-5.950975,-6.936979,2.482486,3.961492,-6.443977,-400.000000,-400.000000,-400.000000,-400.000000,-400.000000,-400.000000,6
384353494,0.985336,-5.951738,-6.937075,2.483201,3.961205,-6.444407,-400.000000,-400.000000,-400.000000,-400.000000,-400.000000,-400.000000,6
384355491,0.968075,-5.954838,-6.922913,2.493382,3.945494,-6.438875,-400.000000,-400.000000,-400.000000,-400.000000,-400.000000,-400.000000,6
384357489,0.976276,-5.941534,-6.917810,2.482629,3.947043,-6.429672,-400.000000,-400.000000,-400.000000,-400.000000,-400.000000,-400.000000,6
384359486,0.987148,-5.930710,-6.917858,2.471781,3.952503,-6.424284,-400.000000,-400.000000,-400.000000,-400.000000,-400.000000,-400.000000,6
384361484,1.005793,-5.933714,-6.939507,2.463961,3.972650,-6.436610,-400.000000,-400.000000,-400.000000,-400.000000,-400.000000,-400.000000,6
384363481,1.031637,-5.949068,-6.980705,2.458715,4.006171,-6.464887,-400.000000,-400.000000,-400.000000,-400.000000,-400.000000,-400.000000,6
384365479,1.042271,-5.961800,-7.004070,2.459764,4.023170,-6.482935,-400.000000,-400.000000,-400.000000,-400.000000,-400.000000,-400.000000,6
384367476,1.031208,-5.956841,-6.988049,2.462816,4.009628,-6.472445,-400.000000,-400.000000,-400.000000,-400.000000,-400.000000,-400.000000,6
384369474,1.011896,-5.956459,-6.968355,2.472281,3.990126,-6.462407,-400.000000,-400.000000,-400.000000,-400.000000,-400.000000,-400.000000,6
384371471,0.991774,-5.958796,-6.950569,2.483511,3.971171,-6.454682,-400.000000,-400.000000,-400.000000,-400.000000,-400.000000,-400.000000,6
384373469,0.970936,-5.966520,-6.937456,2.497792,3.954196,-6.451988,-400.000000,-400.000000,-400.000000,-400.000000,-400.000000,-400.000000,6
384375466,0.972176,-5.957031,-6.929207,2.492428,3.950691,-6.443119,-400.000000,-400.000000,-400.000000,-400.000000,-400.000000,-400.000000,6
384377465,0.992107,-5.935764,-6.927872,2.471828,3.959990,-6.431818,-400.000000,-400.000000,-400.000000,-400.000000,-400.000000,-400.000000,6
384379462,0.992346,-5.942392,-6.934738,2.475023,3.963542,-6.438565,-400.000000,-400.000000,-400.000000,-400.000000,-400.000000,-400.000000,6
384381459,0.991440,-5.942822,-6.934261,2.475691,3.962851,-6.438541,-400.000000,-400.000000,-400.000000,-400.000000,-400.000000,-400.000000,6
384383456,1.004982,-5.937815,-6.942797,2.466416,3.973889,-6.440306,-400.000000,-400.000000,-400.000000,-400.000000,-400.000000,-400.000000,6
384385453,1.035357,-5.966043,-7.001400,2.465343,4.018378,-6.483722,-400.000000,-400.000000,-400.000000,-400.000000,-400.000000,-400.000000,6
384387451,1.038170,-5.982494,-7.020664,2.472162,4.029417,-6.501579,-400.000000,-400.000000,-400.000000,-400.000000,-400.000000,-400.000000,6
384389448,1.021671,-5.970430,-6.992102,2.474380,4.006886,-6.481266,-400.000000,-400.000000,-400.000000,-400.000000,-400.000000,-400.000000,6
384391445,0.992346,-5.966520,-6.958866,2.487087,3.975606,-6.462693,-400.000000,-400.000000,-400.000000,-400.000000,-400.000000,-400.000000,6
384393443,0.976753,-5.969191,-6.945944,2.496219,3.961349,-6.457567,-400.000000,-400.000000,-400.000000,-400.000000,-400.000000,-400.000000,6
384395440,0.958967,-5.970097,-6.929064,2.505565,3.944016,-6.449580,-400.000000,-400.000000,-400.000000,-400.000000,-400.000000,-400.000000,6
384397438,0.976038,-5.960655,-6.936693,2.492309,3.956366,-6.448674,-400.000000,-400.000000,-400.000000,-400.000000,-400.000000,-400.000000,6
384399435,0.980043,-5.963230,-6.943274,2.491593,3.961658,-6.453252,-400.000000,-400.000000,-400.000000,-400.000000,-400.000000,-400.000000,6
384401433,0.984621,-5.977726,-6.962347,2.496552,3.973484,-6.470037,-400.000000,-400.000000,-400.000000,-400.000000,-400.000000,-400.000000,6
384403430,1.006985,-5.994415,-7.001400,2.493715,4.004192,-6.497908,-400.000000,-400.000000,-400.000000,-400.000000,-400.000000,-400.000000,6
384405427,1.021338,-5.991554,-7.012892,2.485108,4.017115,-6.502223,-400.000000,-400.000000,-400.000000,-400.000000,-400.000000,-400.000000,6
384407425,1.018000,-5.985880,-7.003880,2.483940,4.010940,-6.494880,-400.000000,-400.000000,-400.000000,-400.000000,-400.000000,-400.000000,6
384409422,1.018286,-5.989599,-7.007885,2.485657,4.013085,-6.498742,-400.000000,-400.000000,-400.000000,-400.000000,-400.000000,-400.000000,6
384411419,1.009083,-5.988598,-6.997681,2.489758,4.003382,-6.493139,-400.000000,-400.000000,-400.000000,-400.000000,-400.000000,-400.000000,6
384413417,0.983667,-5.976963,-6.960630,2.496648,3.972149,-6.468797,-400.000000,-400.000000,-400.000000,-400.000000,-400.000000,-400.000000,6
384415414,0.971460,-5.939627,-6.911087,2.484083,3.941274,-6.425357,-400.000000,-400.000000,-400.000000,-400.000000,-400.000000,-400.000000,6
384417411,0.965786,-5.923748,-6.889534,2.478981,3.927660,-6.406641,-400.000000,-400.000000,-400.000000,-400.000000,-400.000000,-400.000000,6
384419409,0.978613,-5.923462,-6.902075,2.472425,3.940344,-6.412768,-400.000000,-400.000000,-400.000000,-400.000000,-400.000000,-400.000000,6
384421408,1.019478,-5.921841,-6.941319,2.451181,3.980398,-6.431580,-400.000000,-400.000000,-400.000000,-400.000000,-400.000000,-400.000000,6
384423404,1.036739,-5.930281,-6.967020,2.446771,4.001880,-6.448650,-400.000000,-400.000000,-400.000000,-400.000000,-400.000000,-400.000000,6
384425402,1.037073,-5.920029,-6.957102,2.441478,3.997087,-6.438565,-400.000000,-400.000000,-400.000000,-400.000000,-400.000000,-400.000000,6
384427399,1.041174,-5.894852,-6.936026,2.426839,3.988600,-6.415439,-400.000000,-400.000000,-400.000000,-400.000000,-400.000000,-400.000000,6
384429398,1.062202,-5.879974,-6.942177,2.408886,4.002190,-6.411076,-400.000000,-400.000000,-400.000000,-400.000000,-400.000000,-400.000000,6
384431395,1.044321,-5.845213,-6.889534,2.400446,3.966928,-6.367373,-400.000000,-400.000000,-400.000000,-400.000000,-400.000000,-400.000000,6
384433392,1.010323,-5.821991,-6.832314,2.405834,3.921318,-6.327152,-400.000000,-400.000000,-400.000000,-400.000000,-400.000000,-400.000000,6
384435389,0.981855,-5.804968,-6.786823,2.411556,3.884339,-6.295896,-400.000000,-400.000000,-400.000000,-400.000000,-400.000000,-400.000000,6
384437387,0.982618,-5.807304,-6.789923,2.412343,3.886271,-6.298614,-400.000000,-400.000000,-400.000000,-400.000000,-400.000000,-400.000000,6
384439384,0.998974,-5.804157,-6.803131,2.402592,3.901052,-6.303644,-400.000000,-400.000000,-400.000000,-400.000000,-400.000000,-400.000000,6
384441382,1.005697,-5.811262,-6.816959,2.402782,3.911328,-6.314111,-400.000000,-400.000000,-400.000000,-400.000000,-400.000000,-400.000000,6
384443379,1.026058,-5.809402,-6.835461,2.391672,3.930759,-6.322432,-400.000000,-400.000000,-400.000000,-400.000000,-400.000000,-400.000000,6
384445377,1.050854,-5.804396,-6.855249,2.376771,3.953052,-6.329823,-400.000000,-400.000000,-400.000000,-400.000000,-400.000000,-400.000000,6
384447374,1.064968,-5.779314,-6.844282,2.357173,3.954625,-6.311798,-400.000000,-400.000000,-400.000000,-400.000000,-400.000000,-400.000000,6
384449372,1.039553,-5.762434,-6.801987,2.361441,3.920770,-6.282210,-400.000000,-400.000000,-400.000000,-400.000000,-400.000000,-400.000000,6
384451369,1.016283,-5.743980,-6.760263,2.363849,3.888273,-6.252122,-400.000000,-400.000000,-400.000000,-400.000000,-400.000000,-400.000000,6
384453367,1.000786,-5.728245,-6.729031,2.363729,3.864908,-6.228638,-400.000000,-400.000000,-400.000000,-400.000000,-400.000000,-400.000000,6
384455364,1.000118,-5.706644,-6.706762,2.353263,3.853440,-6.206703,-400.000000,-400.000000,-400.000000,-400.000000,-400.000000,-400.000000,6
384457362,1.005650,-5.708218,-6.713867,2.351284,3.859758,-6.211042,-400.000000,-400.000000,-400.000000,-400.000000,-400.000000,-400.000000,6
384459359,1.027250,-5.728149,-6.755400,2.350450,3.891325,-6.241775,-400.000000,-400.000000,-400.000000,-400.000000,-400.000000,-400.000000,6
384461357,1.057529,-5.741310,-6.798840,2.341890,3.928185,-6.270075,-400.000000,-400.000000,-400.000000,-400.000000,-400.000000,-400.000000,6
384463354,1.084661,-5.760241,-6.844902,2.337790,3.964782,-6.302571,-400.000000,-400.000000,-400.000000,-400.000000,-400.000000,-400.000000,6
384465352,1.085281,-5.800104,-6.885386,2.357411,3.985333,-6.342745,-400.000000,-400.000000,-400.000000,-400.000000,-400.000000,-400.000000,6
384467349,1.067448,-5.816603,-6.884050,2.374578,3.975749,-6.350327,-400.000000,-400.000000,-400.000000,-400.000000,-400.000000,-400.000000,6
384469346,1.042986,-5.816412,-6.859398,2.386713,3.951192,-6.337905,-400.000000,-400.000000,-400.000000,-400.000000,-400.000000,-400.000000,6
384471344,1.001406,-5.814886,-6.816292,2.406740,3.908849,-6.315589,-400.000000,-400.000000,-400.000000,-400.000000,-400.000000,-400.000000,6
384473341,1.011086,-5.826235,-6.837320,2.407575,3.924203,-6.331778,-400.000000,-400.000000,-400.000000,-400.000000,-400.000000,-400.000000,6
384475339,1.010370,-5.836916,-6.847286,2.413273,3.928828,-6.342101,-400.000000,-400.000000,-400.000000,-400.000000,-400.000000,-400.000000,6
384477337,1.015043,-5.842638,-6.857681,2.413797,3.936362,-6.350160,-400.000000,-400.000000,-400.000000,-400.000000,-400.000000,-400.000000,6
384479334,1.029873,-5.872440,-6.902313,2.421284,3.966093,-6.387377,-400.000000,-400.000000,-400.000000,-400.000000,-400.000000,-400.000000,6
384481331,1.035547,-5.894423,-6.929970,2.429438,3.982759,-6.412196,-400.000000,-400.000000,-400.000000,-400.000000,-400.000000,-400.000000,6
384483329,1.023054,-5.911398,-6.934452,2.444172,3.978753,-6.422925,-400.000000,-400.000000,-400.000000,-400.000000,-400.000000,-400.000000,6
384485326,1.019764,-5.927515,-6.947279,2.453876,3.983521,-6.437397,-400.000000,-400.000000,-400.000000,-400.000000,-400.000000,-400.000000,6
384487323,1.016712,-5.945492,-6.962204,2.464390,3.989458,-6.453848,-400.000000,-400.000000,-400.000000,-400.000000,-400.000000,-400.000000,6
384489321,1.008511,-5.951929,-6.960440,2.471709,3.984475,-6.456184,-400.000000,-400.000000,-400.000000,-400.000000,-400.000000,-400.000000,6
384491318,0.990295,-5.943394,-6.933689,2.476549,3.961992,-6.438541,-400.000000,-400.000000,-400.000000,-400.000000,-400.000000,-400.000000,6
384493316,0.952196,-5.948257,-6.900454,2.498031,3.926325,-6.424356,-400.000000,-400.000000,-400.000000,-400.000000,-400.000000,-400.000000,6
384495313,0.946140,-5.948925,-6.895065,2.501392,3.920603,-6.421995,-400.000000,-400.000000,-400.000000,-400.000000,-400.000000,-400.000000,6
384497311,0.965261,-5.966043,-6.931305,2.500391,3.948283,-6.448674,-400.000000,-400.000000,-400.000000,-400.000000,-400.000000,-400.000000,6
384499308,0.981140,-5.993414,-6.974554,2.506137,3.977847,-6.483984,-400.000000,-400.000000,-400.000000,-400.000000,-400.000000,-400.000000,6
384501306,0.989914,-6.001616,-6.991529,2.505851,3.990722,-6.496572,-400.000000,-400.000000,-400.000000,-400.000000,-400.000000,-400.000000,6
384503306,0.996161,-6.009340,-7.005501,2.506590,4.000831,-6.507421,-400.000000,-400.000000,-400.000000,-400.000000,-400.000000,-400.000000,6
384505301,1.001263,-6.013536,-7.014799,2.506137,4.008031,-6.514168,-400.000000,-400.000000,-400.000000,-400.000000,-400.000000,-400.000000,6
384507298,1.019669,-5.989981,-7.009649,2.485156,4.014659,-6.499815,-400.000000,-400.000000,-400.000000,-400.000000,-400.000000,-400.000000,6
384509296,1.010323,-5.981255,-6.991577,2.485466,4.000950,-6.486416,-400.000000,-400.000000,-400.000000,-400.000000,-400.000000,-400.000000,6
384511293,0.982237,-5.976248,-6.958485,2.497005,3.970361,-6.467366,-400.000000,-400.000000,-400.000000,-400.000000,-400.000000,-400.000000,6
384513291,0.961113,-5.980492,-6.941605,2.509689,3.951359,-6.461048,-400.000000,-400.000000,-400.000000,-400.000000,-400.000000,-400.000000,6
384515288,0.954390,-5.980873,-6.935263,2.513242,3.944826,-6.458068,-400.000000,-400.000000,-400.000000,-400.000000,-400.000000,-400.000000,6
384517286,0.971842,-5.984640,-6.956482,2.506399,3.964162,-6.470561,-400.000000,-400.000000,-400.000000,-400.000000,-400.000000,-400.000000,6
384519284,0.958872,-6.013250,-6.972122,2.527189,3.965497,-6.492686,-400.000000,-400.000000,-400.000000,-400.000000,-400.000000,-400.000000,6
384521281,0.968742,-6.020498,-6.989241,2.525878,3.978992,-6.504869,-400.000000,-400.000000,-400.000000,-400.000000,-400.000000,-400.000000,6
384523278,1.016569,-6.010818,-7.027388,2.497125,4.021978,-6.519103,-400.000000,-400.000000,-400.000000,-400.000000,-400.000000,-400.000000,6
384525277,0.992393,-6.001759,-6.994152,2.504683,3.993273,-6.497955,-400.000000,-400.000000,-400.000000,-400.000000,-400.000000,-400.000000,6
384527274,1.008463,-6.000996,-7.009459,2.496266,4.008961,-6.505227,-400.000000,-400.000000,-400.000000,-400.000000,-400.000000,-400.000000,6
384529272,1.004887,-6.012154,-7.017040,2.503633,4.010963,-6.514597,-400.000000,-400.000000,-400.000000,-400.000000,-400.000000,-400.000000,6
384531269,0.983858,-6.001806,-6.985664,2.508974,3.984761,-6.493735,-400.000000,-400.000000,-400.000000,-400.000000,-400.000000,-400.000000,6
384533266,0.959921,-5.981636,-6.941557,2.510858,3.950739,-6.461596,-400.000000,-400.000000,-400.000000,-400.000000,-400.000000,-400.000000,6
384535264,0.943756,-5.960321,-6.904078,2.508283,3.923917,-6.432199,-400.000000,-400.000000,-400.000000,-400.000000,-400.000000,-400.000000,6
384537262,0.949764,-5.952120,-6.901884,2.501178,3.925824,-6.427002,-400.000000,-400.000000,-400.000000,-400.000000,-400.000000,-400.000000,6
384539259,0.972080,-5.954647,-6.926727,2.491283,3.949404,-6.440687,-400.000000,-400.000000,-400.000000,-400.000000,-400.000000,-400.000000,6
384541257,0.977564,-5.956459,-6.934023,2.489448,3.955793,-6.445241,-400.000000,-400.000000,-400.000000,-400.000000,-400.000000,-400.000000,6
384543255,0.998878,-5.974483,-6.973362,2.487803,3.986120,-6.473923,-400.000000,-400.000000,-400.000000,-400.000000,-400.000000,-400.000000,6
384545252,1.002121,-5.999660,-7.001781,2.498770,4.001951,-6.500721,-400.000000,-400.000000,-400.000000,-400.000000,-400.000000,-400.000000,6
384547249,0.980091,-5.977964,-6.958055,2.498937,3.969073,-6.468010,-400.000000,-400.000000,-400.000000,-400.000000,-400.000000,-400.000000,6
384549246,0.940847,-5.951214,-6.892061,2.505183,3.916454,-6.421638,-400.000000,-400.000000,-400.000000,-400.000000,-400.000000,-400.000000,6
384551244,0.907230,-5.919695,-6.826925,2.506232,3.867078,-6.373310,-400.000000,-400.000000,-400.000000,-400.000000,-400.000000,-400.000000,6
384553241,0.872278,-5.895948,-6.768227,2.511835,3.820252,-6.332088,-400.000000,-400.000000,-400.000000,-400.000000,-400.000000,-400.000000,6
384555239,0.886393,-5.828810,-6.715202,2.471209,3.800797,-6.272006,-400.000000,-400.000000,-400.000000,-400.000000,-400.000000,-400.000000,6
384557236,0.921059,-5.761337,-6.682396,2.420139,3.801727,-6.221867,-400.000000,-400.000000,-400.000000,-400.000000,-400.000000,-400.000000,6
384559234,0.952291,-5.718184,-6.670475,2.382946,3.811383,-6.194329,-400.000000,-400.000000,-400.000000,-400.000000,-400.000000,-400.000000,6
384561231,1.000214,-5.656290,-6.656504,2.328038,3.828359,-6.156397,-400.000000,-400.000000,-400.000000,-400.000000,-400.000000,-400.000000,6
384563230,1.053047,-5.581427,-6.634474,2.264190,3.843760,-6.107950,-400.000000,-400.000000,-400.000000,-400.000000,-400.000000,-400.000000,6
384565226,1.095963,-5.503225,-6.599188,2.203631,3.847575,-6.051207,-400.000000,-400.000000,-400.000000,-400.000000,-400.000000,-400.000000,6
384567224,1.135826,-5.426407,-6.562233,2.145290,3.849030,-5.994320,-400.000000,-400.000000,-400.000000,-400.000000,-400.000000,-400.000000,6
384569221,1.186752,-5.344248,-6.531000,2.078748,3.858876,-5.937624,-400.000000,-400.000000,-400.000000,-400.000000,-400.000000,-400.000000,6
384571219,1.235914,-5.258226,-6.494141,2.011156,3.865027,-5.876184,-400.000000,-400.000000,-400.000000,-400.000000,-400.000000,-400.000000,6
384573216,1.294518,-5.170155,-6.464672,1.937819,3.879595,-5.817413,-400.000000,-400.000000,-400.000000,-400.000000,-400.000000,-400.000000,6
384575215,1.346111,-5.056047,-6.402159,1.854968,3.874135,-5.729103,-400.000000,-400.000000,-400.000000,-400.000000,-400.000000,-400.000000,6
384577224,1.387787,-4.933691,-6.321478,1.772952,3.854632,-5.627584,-400.000000,-400.000000,-400.000000,-400.000000,-400.000000,-400.000000,6
384579215,1.427031,-4.859304,-6.286335,1.716137,3.856683,-5.572820,-400.000000,-400.000000,-400.000000,-400.000000,-400.000000,-400.000000,6
384581206,1.469326,-4.855824,-6.325150,1.693249,3.897238,-5.590487,-400.000000,-400.000000,-400.000000,-400.000000,-400.000000,-400.000000,6
384583203,1.499605,-4.966688,-6.466293,1.733541,3.982949,-5.716491,-400.000000,-400.000000,-400.000000,-400.000000,-400.000000,-400.000000,6
384585201,1.503134,-5.169773,-6.672907,1.833320,4.088020,-5.921340,-400.000000,-400.000000,-400.000000,-400.000000,-400.000000,-400.000000,6
384587198,1.502228,-5.413103,-6.915331,1.955438,4.208779,-6.164217,-400.000000,-400.000000,-400.000000,-400.000000,-400.000000,-400.000000,6
384589196,1.459980,-5.677176,-7.137156,2.108598,4.298568,-6.407166,-400.000000,-400.000000,-400.000000,-400.000000,-400.000000,-400.000000,6
384591194,1.400852,-5.998135,-7.398987,2.298641,4.399920,-6.698561,-400.000000,-400.000000,-400.000000,-400.000000,-400.000000,-400.000000,6
384593191,1.321697,-6.303692,-7.625389,2.490997,4.473543,-6.964540,-400.000000,-400.000000,-400.000000,-400.000000,-400.000000,-400.000000,6
384595189,1.244068,-6.511974,-7.756042,2.633953,4.500055,-7.134008,-400.000000,-400.000000,-400.000000,-400.000000,-400.000000,-400.000000,6
384597186,1.202488,-6.632900,-7.835388,2.715206,4.518938,-7.234144,-400.000000,-400.000000,-400.000000,-400.000000,-400.000000,-400.000000,6
384599184,1.174164,-6.654692,-7.828856,2.740264,4.501510,-7.241774,-400.000000,-400.000000,-400.000000,-400.000000,-400.000000,-400.000000,6
384601181,1.156759,-6.617355,-7.774115,2.730298,4.465437,-7.195735,-400.000000,-400.000000,-400.000000,-400.000000,-400.000000,-400.000000,6
384603179,1.125288,-6.567192,-7.692480,2.720952,4.408884,-7.129836,-400.000000,-400.000000,-400.000000,-400.000000,-400.000000,-400.000000,6
384605176,1.104975,-6.526804,-7.631779,2.710915,4.368377,-7.079291,-400.000000,-400.000000,-400.000000,-400.000000,-400.000000,-400.000000,6
384607174,1.103210,-6.472063,-7.575274,2.684426,4.339242,-7.023668,-400.000000,-400.000000,-400.000000,-400.000000,-400.000000,-400.000000,6
384609171,1.058531,-6.405449,-7.463980,2.673459,4.261255,-6.934714,-400.000000,-400.000000,-400.000000,-400.000000,-400.000000,-400.000000,6
384611169,1.041222,-6.306028,-7.347250,2.632403,4.194236,-6.826639,-400.000000,-400.000000,-400.000000,-400.000000,-400.000000,-400.000000,6
384613166,1.035166,-6.207991,-7.243156,2.586412,4.139161,-6.725574,-400.000000,-400.000000,-400.000000,-400.000000,-400.000000,-400.000000,6
384615164,1.034832,-6.144571,-7.179403,2.554870,4.107118,-6.661987,-400.000000,-400.000000,-400.000000,-400.000000,-400.000000,-400.000000,6
384617161,1.021719,-6.143904,-7.165623,2.561092,4.093671,-6.654763,-400.000000,-400.000000,-400.000000,-400.000000,-400.000000,-400.000000,6
384619159,1.024008,-6.113815,-7.137823,2.544904,4.080915,-6.625819,-400.000000,-400.000000,-400.000000,-400.000000,-400.000000,-400.000000,6
384621156,1.033926,-6.086397,-7.120323,2.526236,4.077125,-6.603360,-400.000000,-400.000000,-400.000000,-400.000000,-400.000000,-400.000000,6
384623154,1.052809,-6.072235,-7.125044,2.509713,4.088926,-6.598639,-400.000000,-400.000000,-400.000000,-400.000000,-400.000000,-400.000000,6
384625151,1.056290,-6.077528,-7.133818,2.510619,4.095054,-6.605673,-400.000000,-400.000000,-400.000000,-400.000000,-400.000000,-400.000000,6
384627149,1.037788,-6.065607,-7.103395,2.513909,4.070592,-6.584501,-400.000000,-400.000000,-400.000000,-400.000000,-400.000000,-400.000000,6
384629146,1.027679,-6.030750,-7.058430,2.501535,4.043055,-6.544590,-400.000000,-400.000000,-400.000000,-400.000000,-400.000000,-400.000000,6
384631144,0.988388,-6.002522,-6.990910,2.507067,3.989649,-6.496716,-400.000000,-400.000000,-400.000000,-400.000000,-400.000000,-400.000000,6
384633141,0.962448,-5.979443,-6.941891,2.508497,3.952169,-6.460667,-400.000000,-400.000000,-400.000000,-400.000000,-400.000000,-400.000000,6
384635139,0.979328,-5.942631,-6.921959,2.481651,3.950644,-6.432295,-400.000000,-400.000000,-400.000000,-400.000000,-400.000000,-400.000000,6
384637137,0.977755,-5.925274,-6.903028,2.473760,3.940392,-6.414151,-400.000000,-400.000000,-400.000000,-400.000000,-400.000000,-400.000000,6
384639134,0.973988,-5.934286,-6.908274,2.480149,3.941131,-6.421280,-400.000000,-400.000000,-400.000000,-400.000000,-400.000000,-400.000000,6
384641132,0.979853,-5.956030,-6.935883,2.488089,3.957868,-6.445956,-400.000000,-400.000000,-400.000000,-400.000000,-400.000000,-400.000000,6
384643129,1.006174,-5.961418,-6.967592,2.477622,3.986883,-6.464505,-400.000000,-400.000000,-400.000000,-400.000000,-400.000000,-400.000000,6
384645126,0.997972,-5.957651,-6.955624,2.479839,3.976798,-6.456637,-400.000000,-400.000000,-400.000000,-400.000000,-400.000000,-400.000000,6
384647124,1.000071,-5.962658,-6.962729,2.481294,3.981400,-6.462693,-400.000000,-400.000000,-400.000000,-400.000000,-400.000000,-400.000000,6
384649121,1.008320,-5.966139,-6.974459,2.478909,3.991389,-6.470299,-400.000000,-400.000000,-400.000000,-400.000000,-400.000000,-400.000000,6
384651119,0.993824,-5.952883,-6.946707,2.479529,3.970265,-6.449795,-400.000000,-400.000000,-400.000000,-400.000000,-400.000000,-400.000000,6
384653116,0.967741,-5.945253,-6.912994,2.488756,3.940368,-6.429124,-400.000000,-400.000000,-400.000000,-400.000000,-400.000000,-400.000000,6
384655113,0.968409,-5.917263,-6.885672,2.474427,3.927040,-6.401467,-400.000000,-400.000000,-400.000000,-400.000000,-400.000000,-400.000000,6
384657111,0.966263,-5.908060,-6.874323,2.470899,3.920293,-6.391191,-400.000000,-400.000000,-400.000000,-400.000000,-400.000000,-400.000000,6
384659109,0.978899,-5.930424,-6.909323,2.475762,3.944111,-6.419873,-400.000000,-400.000000,-400.000000,-400.000000,-400.000000,-400.000000,6
384661106,0.993252,-5.948067,-6.941319,2.477407,3.967285,-6.444693,-400.000000,-400.000000,-400.000000,-400.000000,-400.000000,-400.000000,6
384663104,0.991631,-5.951977,-6.943607,2.480173,3.967619,-6.447792,-400.000000,-400.000000,-400.000000,-400.000000,-400.000000,-400.000000,6
384665101,1.014900,-5.955648,-6.970549,2.470374,3.992724,-6.463099,-400.000000,-400.000000,-400.000000,-400.000000,-400.000000,-400.000000,6
384667098,1.012754,-5.947733,-6.960487,2.467489,3.986621,-6.454110,-400.000000,-400.000000,-400.000000,-400.000000,-400.000000,-400.000000,6
384669096,1.022911,-5.948448,-6.971359,2.462769,3.997135,-6.459904,-400.000000,-400.000000,-400.000000,-400.000000,-400.000000,-400.000000,6
384671093,0.998688,-5.945110,-6.943798,2.473211,3.971243,-6.444454,-400.000000,-400.000000,-400.000000,-400.000000,-400.000000,-400.000000,6
384673091,0.983953,-5.925608,-6.909561,2.470827,3.946757,-6.417584,-400.000000,-400.000000,-400.000000,-400.000000,-400.000000,-400.000000,6
384675088,0.971699,-5.907106,-6.878805,2.467704,3.925252,-6.392956,-400.000000,-400.000000,-400.000000,-400.000000,-400.000000,-400.000000,6
384677087,0.968361,-5.919170,-6.887531,2.475405,3.927946,-6.403351,-400.000000,-400.000000,-400.000000,-400.000000,-400.000000,-400.000000,6
384679084,0.978851,-5.946112,-6.924963,2.483630,3.951907,-6.435537,-400.000000,-400.000000,-400.000000,-400.000000,-400.000000,-400.000000,6
384681081,0.988770,-5.955553,-6.944323,2.483392,3.966546,-6.449938,-400.000000,-400.000000,-400.000000,-400.000000,-400.000000,-400.000000,6
384683079,1.018763,-5.953503,-6.972265,2.467370,3.995514,-6.462884,-400.000000,-400.000000,-400.000000,-400.000000,-400.000000,-400.000000,6
384685077,1.024628,-5.949497,-6.974125,2.462435,3.999376,-6.461811,-400.000000,-400.000000,-400.000000,-400.000000,-400.000000,-400.000000,6
384687074,1.020002,-5.931091,-6.951094,2.455544,3.985548,-6.441092,-400.000000,-400.000000,-400.000000,-400.000000,-400.000000,-400.000000,6
384689071,1.021338,-5.914831,-6.936169,2.446747,3.978753,-6.425500,-400.000000,-400.000000,-400.000000,-400.000000,-400.000000,-400.000000,6
384691069,1.005983,-5.914783,-6.920767,2.454400,3.963375,-6.417775,-400.000000,-400.000000,-400.000000,-400.000000,-400.000000,-400.000000,6
384693066,0.997734,-5.906677,-6.904411,2.454472,3.951073,-6.405544,-400.000000,-400.000000,-400.000000,-400.000000,-400.000000,-400.000000,6
384695064,0.986767,-5.892372,-6.879139,2.452803,3.932953,-6.385756,-400.000000,-400.000000,-400.000000,-400.000000,-400.000000,-400.000000,6
384697061,0.972176,-5.876637,-6.848812,2.452230,3.910494,-6.362724,-400.000000,-400.000000,-400.000000,-400.000000,-400.000000,-400.000000,6
384699059,0.987864,-5.876207,-6.864071,2.444172,3.925967,-6.370139,-400.000000,-400.000000,-400.000000,-400.000000,-400.000000,-400.000000,6
384701057,1.024055,-5.888033,-6.912088,2.431989,3.968072,-6.400061,-400.000000,-400.000000,-400.000000,-400.000000,-400.000000,-400.000000,6
384703054,1.034069,-5.895758,-6.929827,2.430844,3.981948,-6.412792,-400.000000,-400.000000,-400.000000,-400.000000,-400.000000,-400.000000,6
384705051,1.037979,-5.899191,-6.937170,2.430606,3.987575,-6.418180,-400.000000,-400.000000,-400.000000,-400.000000,-400.000000,-400.000000,6
384707049,1.045370,-5.892944,-6.938314,2.423787,3.991842,-6.415629,-400.000000,-400.000000,-400.000000,-400.000000,-400.000000,-400.000000,6
384709046,1.032495,-5.889463,-6.921959,2.428484,3.977227,-6.405711,-400.000000,-400.000000,-400.000000,-400.000000,-400.000000,-400.000000,6
384711044,1.022196,-5.892372,-6.914568,2.435088,3.968382,-6.403470,-400.000000,-400.000000,-400.000000,-400.000000,-400.000000,-400.000000,6
384713041,0.990057,-5.908823,-6.898880,2.459383,3.944468,-6.403852,-400.000000,-400.000000,-400.000000,-400.000000,-400.000000,-400.000000,6
384715039,0.990820,-5.890179,-6.880999,2.449679,3.935909,-6.385589,-400.000000,-400.000000,-400.000000,-400.000000,-400.000000,-400.000000,6
384717036,0.996637,-5.857706,-6.854343,2.430534,3.925490,-6.356025,-400.000000,-400.000000,-400.000000,-400.000000,-400.000000,-400.000000,6
384719034,0.991297,-5.872536,-6.863832,2.440619,3.927565,-6.368184,-400.000000,-400.000000,-400.000000,-400.000000,-400.000000,-400.000000,6
384721031,1.027870,-5.867577,-6.895447,2.419853,3.961658,-6.381512,-400.000000,-400.000000,-400.000000,-400.000000,-400.000000,-400.000000,6
384723029,1.051712,-5.862761,-6.914473,2.405524,3.983092,-6.388617,-400.000000,-400.000000,-400.000000,-400.000000,-400.000000,-400.000000,6
384725026,1.059914,-5.856037,-6.915951,2.398062,3.987932,-6.385994,-400.000000,-400.000000,-400.000000,-400.000000,-400.000000,-400.000000,6
384727024,1.078081,-5.849361,-6.927443,2.385640,4.002762,-6.388402,-400.000000,-400.000000,-400.000000,-400.000000,-400.000000,-400.000000,6
384729023,1.077366,-5.850506,-6.927872,2.386570,4.002619,-6.389189,-400.000000,-400.000000,-400.000000,-400.000000,-400.000000,-400.000000,6
384731021,1.044464,-5.844784,-6.889248,2.400160,3.966856,-6.367016,-400.000000,-400.000000,-400.000000,-400.000000,-400.000000,-400.000000,6
384733017,1.041746,-5.837250,-6.878996,2.397752,3.960371,-6.358123,-400.000000,-400.000000,-400.000000,-400.000000,-400.000000,-400.000000,6
384735014,1.027822,-5.819845,-6.847668,2.396011,3.937745,-6.333756,-400.000000,-400.000000,-400.000000,-400.000000,-400.000000,-400.000000,6
384737013,1.021194,-5.823040,-6.844234,2.400923,3.932714,-6.333637,-400.000000,-400.000000,-400.000000,-400.000000,-400.000000,-400.000000,6
384739009,1.032400,-5.835342,-6.867743,2.401471,3.950071,-6.351542,-400.000000,-400.000000,-400.000000,-400.000000,-400.000000,-400.000000,6
384741007,1.046944,-5.833149,-6.880093,2.393103,3.963518,-6.356621,-400.000000,-400.000000,-400.000000,-400.000000,-400.000000,-400.000000,6
384743004,1.059914,-5.844593,-6.904507,2.392340,3.982210,-6.374550,-400.000000,-400.000000,-400.000000,-400.000000,-400.000000,-400.000000,6
384745002,1.086617,-5.839968,-6.926584,2.376676,4.006600,-6.383276,-400.000000,-400.000000,-400.000000,-400.000000,-400.000000,-400.000000,6
384746999,1.095009,-5.827522,-6.922531,2.366257,4.008770,-6.375027,-400.000000,-400.000000,-400.000000,-400.000000,-400.000000,-400.000000,6
384748997,1.074457,-5.836773,-6.911230,2.381158,3.992844,-6.374002,-400.000000,-400.000000,-400.000000,-400.000000,-400.000000,-400.000000,6
384750994,1.060152,-5.830717,-6.890869,2.385283,3.975511,-6.360793,-400.000000,-400.000000,-400.000000,-400.000000,-400.000000,-400.000000,6
384752992,1.047897,-5.799246,-6.847143,2.375674,3.947520,-6.323195,-400.000000,-400.000000,-400.000000,-400.000000,-400.000000,-400.000000,6
384754989,1.058626,-5.783415,-6.842041,2.362394,3.950334,-6.312728,-400.000000,-400.000000,-400.000000,-400.000000,-400.000000,-400.000000,6
384756987,1.056767,-5.780983,-6.837749,2.362108,3.947258,-6.309366,-400.000000,-400.000000,-400.000000,-400.000000,-400.000000,-400.000000,6
384758985,1.059866,-5.803299,-6.863165,2.371716,3.961515,-6.333232,-400.000000,-400.000000,-400.000000,-400.000000,-400.000000,-400.000000,6
384760983,1.085234,-5.822325,-6.907558,2.368546,3.996396,-6.364942,-400.000000,-400.000000,-400.000000,-400.000000,-400.000000,-400.000000,6
384762979,1.097488,-5.843401,-6.940889,2.372956,4.019189,-6.392145,-400.000000,-400.000000,-400.000000,-400.000000,-400.000000,-400.000000,6
384764977,1.126909,-5.846453,-6.973362,2.359772,4.050136,-6.409907,-400.000000,-400.000000,-400.000000,-400.000000,-400.000000,-400.000000,6
384766974,1.135349,-5.831289,-6.966639,2.347970,4.050994,-6.398964,-400.000000,-400.000000,-400.000000,-400.000000,-400.000000,-400.000000,6
384768972,1.113415,-5.832720,-6.946135,2.359653,4.029775,-6.389427,-400.000000,-400.000000,-400.000000,-400.000000,-400.000000,-400.000000,6
384770969,1.104736,-5.819750,-6.924486,2.357507,4.014611,-6.372118,-400.000000,-400.000000,-400.000000,-400.000000,-400.000000,-400.000000,6
384772967,1.086855,-5.805397,-6.892252,2.359271,3.989553,-6.348825,-400.000000,-400.000000,-400.000000,-400.000000,-400.000000,-400.000000,6
384774964,1.066399,-5.793381,-6.859779,2.363491,3.963089,-6.326580,-400.000000,-400.000000,-400.000000,-400.000000,-400.000000,-400.000000,6
384776963,1.075792,-5.792046,-6.867838,2.358127,3.971815,-6.329942,-400.000000,-400.000000,-400.000000,-400.000000,-400.000000,-400.000000,6
384778959,1.083708,-5.810452,-6.894159,2.363372,3.988934,-6.352305,-400.000000,-400.000000,-400.000000,-400.000000,-400.000000,-400.000000,6
384780957,1.093054,-5.815649,-6.908703,2.361298,4.000878,-6.362176,-400.000000,-400.000000,-400.000000,-400.000000,-400.000000,-400.000000,6
384782954,1.122427,-5.809689,-6.932116,2.343631,4.027271,-6.370902,-400.000000,-400.000000,-400.000000,-400.000000,-400.000000,-400.000000,6
384784952,1.140499,-5.816364,-6.956863,2.337933,4.048681,-6.386614,-400.000000,-400.000000,-400.000000,-400.000000,-400.000000,-400.000000,6
384786949,1.135302,-5.812216,-6.947517,2.338457,4.041409,-6.379867,-400.000000,-400.000000,-400.000000,-400.000000,-400.000000,-400.000000,6
384788947,1.121473,-5.805540,-6.927013,2.342033,4.024243,-6.366277,-400.000000,-400.000000,-400.000000,-400.000000,-400.000000,-400.000000,6
384790944,1.115704,-5.797577,-6.913280,2.340937,4.014492,-6.355429,-400.000000,-400.000000,-400.000000,-400.000000,-400.000000,-400.000000,6
384792942,1.088762,-5.787468,-6.876230,2.349353,3.982496,-6.331849,-400.000000,-400.000000,-400.000000,-400.000000,-400.000000,-400.000000,6
384794939,1.063633,-5.772066,-6.835699,2.354217,3.949666,-6.303883,-400.000000,-400.000000,-400.000000,-400.000000,-400.000000,-400.000000,6
384796937,1.065302,-5.778265,-6.843567,2.356482,3.954434,-6.310916,-400.000000,-400.000000,-400.000000,-400.000000,-400.000000,-400.000000,6
384798935,1.093960,-5.790710,-6.884670,2.348375,3.989315,-6.337690,-400.000000,-400.000000,-400.000000,-400.000000,-400.000000,-400.000000,6
384800932,1.084852,-5.791903,-6.876755,2.353525,3.980803,-6.334329,-400.000000,-400.000000,-400.000000,-400.000000,-400.000000,-400.000000,6
384802929,1.099014,-5.798388,-6.897402,2.349687,3.998208,-6.347895,-400.000000,-400.000000,-400.000000,-400.000000,-400.000000,-400.000000,6
384804927,1.102400,-5.822277,-6.924677,2.359939,4.013538,-6.373477,-400.000000,-400.000000,-400.000000,-400.000000,-400.000000,-400.000000,6
384806925,1.101875,-5.815268,-6.917143,2.356696,4.009509,-6.366205,-400.000000,-400.000000,-400.000000,-400.000000,-400.000000,-400.000000,6
384808922,1.073551,-5.823803,-6.897354,2.375126,3.985453,-6.360579,-400.000000,-400.000000,-400.000000,-400.000000,-400.000000,-400.000000,6
384810920,1.066589,-5.814505,-6.881094,2.373958,3.973842,-6.347799,-400.000000,-400.000000,-400.000000,-400.000000,-400.000000,-400.000000,6
384812917,1.037645,-5.811357,-6.849003,2.386856,3.943324,-6.330180,-400.000000,-400.000000,-400.000000,-400.000000,-400.000000,-400.000000,6
384814914,1.021194,-5.805826,-6.827021,2.392316,3.924108,-6.316423,-400.000000,-400.000000,-400.000000,-400.000000,-400.000000,-400.000000,6
384816912,1.025581,-5.789709,-6.815290,2.382064,3.920436,-6.302500,-400.000000,-400.000000,-400.000000,-400.000000,-400.000000,-400.000000,6
384818909,1.016951,-5.794525,-6.811476,2.388787,3.914213,-6.303000,-400.000000,-400.000000,-400.000000,-400.000000,-400.000000,-400.000000,6
384820907,1.030588,-5.824947,-6.855536,2.397180,3.943062,-6.340241,-400.000000,-400.000000,-400.000000,-400.000000,-400.000000,-400.000000,6
384822904,1.041842,-5.858326,-6.900167,2.408242,3.971004,-6.379247,-400.000000,-400.000000,-400.000000,-400.000000,-400.000000,-400.000000,6
384824902,1.041937,-5.878019,-6.919956,2.418041,3.980947,-6.398988,-400.000000,-400.000000,-400.000000,-400.000000,-400.000000,-400.000000,6
384826899,1.039553,-5.884838,-6.924391,2.422643,3.981972,-6.404614,-400.000000,-400.000000,-400.000000,-400.000000,-400.000000,-400.000000,6
384828897,1.028109,-5.876827,-6.904936,2.424359,3.966522,-6.390882,-400.000000,-400.000000,-400.000000,-400.000000,-400.000000,-400.000000,6
384830894,1.012850,-5.871773,-6.884623,2.429461,3.948736,-6.378198,-400.000000,-400.000000,-400.000000,-400.000000,-400.000000,-400.000000,6
384832893,0.995779,-5.876255,-6.872034,2.440238,3.933907,-6.374145,-400.000000,-400.000000,-400.000000,-400.000000,-400.000000,-400.000000,6
384834889,0.993872,-5.883789,-6.877661,2.444959,3.935766,-6.380725,-400.000000,-400.000000,-400.000000,-400.000000,-400.000000,-400.000000,6
384836888,0.972462,-5.884695,-6.857157,2.456117,3.914809,-6.370926,-400.000000,-400.000000,-400.000000,-400.000000,-400.000000,-400.000000,6
384838885,0.978661,-5.896711,-6.875372,2.459025,3.927016,-6.386042,-400.000000,-400.000000,-400.000000,-400.000000,-400.000000,-400.000000,6
384840882,0.994396,-5.922222,-6.916618,2.463913,3.955507,-6.419420,-400.000000,-400.000000,-400.000000,-400.000000,-400.000000,-400.000000,6
384842879,1.006794,-5.941391,-6.948185,2.467299,3.977489,-6.444788,-400.000000,-400.000000,-400.000000,-400.000000,-400.000000,-400.000000,6
384844876,1.028204,-5.939770,-6.967974,2.455783,3.998089,-6.453872,-400.000000,-400.000000,-400.000000,-400.000000,-400.000000,-400.000000,6
384846874,1.022720,-5.935621,-6.958342,2.456450,3.990531,-6.446981,-400.000000,-400.000000,-400.000000,-400.000000,-400.000000,-400.000000,6
384848871,1.013231,-5.924606,-6.937838,2.455688,3.975534,-6.431222,-400.000000,-400.000000,-400.000000,-400.000000,-400.000000,-400.000000,6
384850869,0.982904,-5.919981,-6.902885,2.468538,3.942895,-6.411433,-400.000000,-400.000000,-400.000000,-400.000000,-400.000000,-400.000000,6
384852866,0.967550,-5.900288,-6.867838,2.466369,3.917694,-6.384063,-400.000000,-400.000000,-400.000000,-400.000000,-400.000000,-400.000000,6
384854864,0.974083,-5.882072,-6.856155,2.453995,3.915119,-6.369114,-400.000000,-400.000000,-400.000000,-400.000000,-400.000000,-400.000000,6
384856861,0.975513,-5.886507,-6.862020,2.455497,3.918767,-6.374264,-400.000000,-400.000000,-400.000000,-400.000000,-400.000000,-400.000000,6
384858859,0.975657,-5.914879,-6.890535,2.469611,3.933096,-6.402707,-400.000000,-400.000000,-400.000000,-400.000000,-400.000000,-400.000000,6
384860856,0.985813,-5.937433,-6.923246,2.475810,3.954530,-6.430340,-400.000000,-400.000000,-400.000000,-400.000000,-400.000000,-400.000000,6
384862854,1.009035,-5.937576,-6.946611,2.464271,3.977823,-6.442094,-400.000000,-400.000000,-400.000000,-400.000000,-400.000000,-400.000000,6
384864851,1.022959,-5.949211,-6.972170,2.463126,3.997564,-6.460690,-400.000000,-400.000000,-400.000000,-400.000000,-400.000000,-400.000000,6
384866848,1.017094,-5.954981,-6.972075,2.468944,3.994584,-6.463528,-400.000000,-400.000000,-400.000000,-400.000000,-400.000000,-400.000000,6
384868846,1.000309,-5.938768,-6.939077,2.469230,3.969693,-6.438923,-400.000000,-400.000000,-400.000000,-400.000000,-400.000000,-400.000000,6
384870843,0.987577,-5.924654,-6.912231,2.468538,3.949904,-6.418443,-400.000000,-400.000000,-400.000000,-400.000000,-400.000000,-400.000000,6
384872841,0.990200,-5.924892,-6.915092,2.467346,3.952646,-6.419992,-400.000000,-400.000000,-400.000000,-400.000000,-400.000000,-400.000000,6
384874838,0.985098,-5.925560,-6.910658,2.470231,3.947878,-6.418109,-400.000000,-400.000000,-400.000000,-400.000000,-400.000000,-400.000000,6
384876837,0.972414,-5.931902,-6.904316,2.479744,3.938365,-6.418109,-400.000000,-400.000000,-400.000000,-400.000000,-400.000000,-400.000000,6
384878834,0.984240,-5.929995,-6.914234,2.472878,3.949237,-6.422114,-400.000000,-400.000000,-400.000000,-400.000000,-400.000000,-400.000000,6
384880831,0.983810,-5.930233,-6.914043,2.473211,3.948927,-6.422138,-400.000000,-400.000000,-400.000000,-400.000000,-400.000000,-400.000000,6
384882828,0.997210,-5.934906,-6.932116,2.468848,3.964663,-6.433511,-400.000000,-400.000000,-400.000000,-400.000000,-400.000000,-400.000000,6
384884825,1.018143,-5.945253,-6.963396,2.463555,3.990769,-6.454325,-400.000000,-400.000000,-400.000000,-400.000000,-400.000000,-400.000000,6
384886823,1.018429,-5.940485,-6.958914,2.461028,3.988671,-6.449699,-400.000000,-400.000000,-400.000000,-400.000000,-400.000000,-400.000000,6
384888820,1.013947,-5.933237,-6.947184,2.459645,3.980565,-6.440210,-400.000000,-400.000000,-400.000000,-400.000000,-400.000000,-400.000000,6
384890818,1.000118,-5.927753,-6.927872,2.463818,3.963995,-6.427813,-400.000000,-400.000000,-400.000000,-400.000000,-400.000000,-400.000000,6
384892815,0.979900,-5.916643,-6.896544,2.468371,3.938222,-6.406593,-400.000000,-400.000000,-400.000000,-400.000000,-400.000000,-400.000000,6
384894812,0.962210,-5.900717,-6.862926,2.469254,3.912568,-6.381822,-400.000000,-400.000000,-400.000000,-400.000000,-400.000000,-400.000000,6
384896810,0.956345,-5.907011,-6.863356,2.475333,3.909850,-6.385183,-400.000000,-400.000000,-400.000000,-400.000000,-400.000000,-400.000000,6
384898807,0.973892,-5.922508,-6.896400,2.474308,3.935146,-6.409454,-400.000000,-400.000000,-400.000000,-400.000000,-400.000000,-400.000000,6
384900805,0.990391,-5.933142,-6.923532,2.471375,3.956962,-6.428337,-400.000000,-400.000000,-400.000000,-400.000000,-400.000000,-400.000000,6
384902802,1.006603,-5.951214,-6.957817,2.472305,3.982210,-6.454515,-400.000000,-400.000000,-400.000000,-400.000000,-400.000000,-400.000000,6
384904799,1.005077,-5.967331,-6.972408,2.481127,3.988743,-6.469870,-400.000000,-400.000000,-400.000000,-400.000000,-400.000000,-400.000000,6
384906797,1.015282,-5.952692,-6.967974,2.468705,3.991628,-6.460333,-400.000000,-400.000000,-400.000000,-400.000000,-400.000000,-400.000000,6
384908794,1.013803,-5.935192,-6.948996,2.460694,3.981400,-6.442094,-400.000000,-400.000000,-400.000000,-400.000000,-400.000000,-400.000000,6
384910792,0.998163,-5.924129,-6.922293,2.462983,3.960228,-6.423211,-400.000000,-400.000000,-400.000000,-400.000000,-400.000000,-400.000000,6
384912789,0.971842,-5.925035,-6.896877,2.476597,3.934360,-6.410956,-400.000000,-400.000000,-400.000000,-400.000000,-400.000000,-400.000000,6
384914787,0.973749,-5.905437,-6.879187,2.465844,3.926468,-6.392312,-400.000000,-400.000000,-400.000000,-400.000000,-400.000000,-400.000000,6
384916784,0.984955,-5.885696,-6.870651,2.450371,3.927803,-6.378174,-400.000000,-400.000000,-400.000000,-400.000000,-400.000000,-400.000000,6
384918781,0.985956,-5.889463,-6.875420,2.451754,3.930688,-6.382442,-400.000000,-400.000000,-400.000000,-400.000000,-400.000000,-400.000000,6
384920779,0.990057,-5.901337,-6.891394,2.455640,3.940725,-6.396365,-400.000000,-400.000000,-400.000000,-400.000000,-400.000000,-400.000000,6
384922776,0.999832,-5.909395,-6.909227,2.454782,3.954530,-6.409311,-400.000000,-400.000000,-400.000000,-400.000000,-400.000000,-400.000000,6
384924773,1.021338,-5.913544,-6.934881,2.446103,3.978109,-6.424212,-400.000000,-400.000000,-400.000000,-400.000000,-400.000000,-400.000000,6
384926771,1.022625,-5.912256,-6.934881,2.444816,3.978753,-6.423569,-400.000000,-400.000000,-400.000000,-400.000000,-400.000000,-400.000000,6
384928768,1.005220,-5.909967,-6.915188,2.452374,3.960204,-6.412578,-400.000000,-400.000000,-400.000000,-400.000000,-400.000000,-400.000000,6
384930766,0.994253,-5.901051,-6.895304,2.453399,3.944778,-6.398177,-400.000000,-400.000000,-400.000000,-400.000000,-400.000000,-400.000000,6
384932763,0.974989,-5.897045,-6.872034,2.461028,3.923512,-6.384540,-400.000000,-400.000000,-400.000000,-400.000000,-400.000000,-400.000000,6
384934762,0.975418,-5.879927,-6.855345,2.452254,3.915381,-6.367636,-400.000000,-400.000000,-400.000000,-400.000000,-400.000000,-400.000000,6
384936759,0.964785,-5.876064,-6.840849,2.455640,3.902817,-6.358457,-400.000000,-400.000000,-400.000000,-400.000000,-400.000000,-400.000000,6
384938755,0.959349,-5.877876,-6.837225,2.459264,3.898287,-6.357551,-400.000000,-400.000000,-400.000000,-400.000000,-400.000000,-400.000000,6
384940753,1.019907,-5.867100,-6.887007,2.423596,3.953457,-6.377053,-400.000000,-400.000000,-400.000000,-400.000000,-400.000000,-400.000000,6
384942750,1.029158,-5.859327,-6.888485,2.415085,3.958821,-6.373906,-400.000000,-400.000000,-400.000000,-400.000000,-400.000000,-400.000000,6
384944748,1.029444,-5.871248,-6.900692,2.420902,3.965068,-6.385970,-400.000000,-400.000000,-400.000000,-400.000000,-400.000000,-400.000000,6
384946745,1.041269,-5.880547,-6.921816,2.419639,3.981543,-6.401181,-400.000000,-400.000000,-400.000000,-400.000000,-400.000000,-400.000000,6
384948742,1.016092,-5.883980,-6.900072,2.433944,3.958082,-6.392026,-400.000000,-400.000000,-400.000000,-400.000000,-400.000000,-400.000000,6
384950740,0.995970,-5.871630,-6.867599,2.437830,3.931785,-6.369615,-400.000000,-400.000000,-400.000000,-400.000000,-400.000000,-400.000000,6
384952737,0.994110,-5.855894,-6.850004,2.430892,3.922057,-6.352949,-400.000000,-400.000000,-400.000000,-400.000000,-400.000000,-400.000000,6
384954735,0.969315,-5.855179,-6.824493,2.442932,3.896904,-6.339836,-400.000000,-400.000000,-400.000000,-400.000000,-400.000000,-400.000000,6
384956732,0.970602,-5.854702,-6.825304,2.442050,3.897953,-6.340003,-400.000000,-400.000000,-400.000000,-400.000000,-400.000000,-400.000000,6
384958730,0.981998,-5.857086,-6.839085,2.437544,3.910542,-6.348085,-400.000000,-400.000000,-400.000000,-400.000000,-400.000000,-400.000000,6
384960727,1.005840,-5.862761,-6.868601,2.428460,3.937221,-6.365681,-400.000000,-400.000000,-400.000000,-400.000000,-400.000000,-400.000000,6
384962724,1.033115,-5.875063,-6.908178,2.420974,3.970647,-6.391621,-400.000000,-400.000000,-400.000000,-400.000000,-400.000000,-400.000000,6
384964722,1.037598,-5.885792,-6.923389,2.424097,3.980494,-6.404591,-400.000000,-400.000000,-400.000000,-400.000000,-400.000000,-400.000000,6
384966719,1.026678,-5.876875,-6.903553,2.425098,3.965116,-6.390214,-400.000000,-400.000000,-400.000000,-400.000000,-400.000000,-400.000000,6
384968717,1.018715,-5.858850,-6.877565,2.420068,3.948140,-6.368208,-400.000000,-400.000000,-400.000000,-400.000000,-400.000000,-400.000000,6
384970714,1.005554,-5.847502,-6.853056,2.420974,3.929305,-6.350279,-400.000000,-400.000000,-400.000000,-400.000000,-400.000000,-400.000000,6
384972712,0.985813,-5.847168,-6.832981,2.430677,3.909397,-6.340075,-400.000000,-400.000000,-400.000000,-400.000000,-400.000000,-400.000000,6
384974709,0.994015,-5.834293,-6.828308,2.420139,3.911161,-6.331301,-400.000000,-400.000000,-400.000000,-400.000000,-400.000000,-400.000000,6
384976708,0.988579,-5.810833,-6.799412,2.411127,3.893995,-6.305122,-400.000000,-400.000000,-400.000000,-400.000000,-400.000000,-400.000000,6
384978704,0.995588,-5.824661,-6.820250,2.414536,3.907919,-6.322455,-400.000000,-400.000000,-400.000000,-400.000000,-400.000000,-400.000000,6
384980701,1.006126,-5.850220,-6.856346,2.422047,3.931236,-6.353283,-400.000000,-400.000000,-400.000000,-400.000000,-400.000000,-400.000000,6
384982699,1.020813,-5.862284,-6.883097,2.420735,3.951955,-6.372690,-400.000000,-400.000000,-400.000000,-400.000000,-400.000000,-400.000000,6
384984696,1.023245,-5.889654,-6.912899,2.433205,3.968072,-6.401277,-400.000000,-400.000000,-400.000000,-400.000000,-400.000000,-400.000000,6
384986694,1.019621,-5.901670,-6.921291,2.441025,3.970456,-6.411481,-400.000000,-400.000000,-400.000000,-400.000000,-400.000000,-400.000000,6
384988691,1.027727,-5.882359,-6.910086,2.427316,3.968906,-6.396222,-400.000000,-400.000000,-400.000000,-400.000000,-400.000000,-400.000000,6
384990689,1.005459,-5.877590,-6.883049,2.436066,3.944254,-6.380320,-400.000000,-400.000000,-400.000000,-400.000000,-400.000000,-400.000000,6
384992686,0.993681,-5.876732,-6.870413,2.441525,3.932047,-6.373572,-400.000000,-400.000000,-400.000000,-400.000000,-400.000000,-400.000000,6
384994684,0.977659,-5.872011,-6.849670,2.447176,3.913665,-6.360841,-400.000000,-400.000000,-400.000000,-400.000000,-400.000000,-400.000000,6
384996681,0.974226,-5.863953,-6.838179,2.444863,3.906202,-6.351066,-400.000000,-400.000000,-400.000000,-400.000000,-400.000000,-400.000000,6
384998679,0.995064,-5.865574,-6.860638,2.435255,3.927851,-6.363106,-400.000000,-400.000000,-400.000000,-400.000000,-400.000000,-400.000000,6
385000677,1.004410,-5.878258,-6.882668,2.436924,3.943539,-6.380463,-400.000000,-400.000000,-400.000000,-400.000000,-400.000000,-400.000000,6
385002674,1.020575,-5.877924,-6.898499,2.428675,3.959537,-6.388211,-400.000000,-400.000000,-400.000000,-400.000000,-400.000000,-400.000000,6
385004671,1.028347,-5.878067,-6.906414,2.424860,3.967381,-6.392241,-400.000000,-400.000000,-400.000000,-400.000000,-400.000000,-400.000000,6
385006669,1.027060,-5.877686,-6.904745,2.425313,3.965902,-6.391215,-400.000000,-400.000000,-400.000000,-400.000000,-400.000000,-400.000000,6
385008666,1.018572,-5.875921,-6.894493,2.428675,3.956532,-6.385207,-400.000000,-400.000000,-400.000000,-400.000000,-400.000000,-400.000000,6
385010664,0.987196,-5.875397,-6.862593,2.444100,3.924894,-6.368995,-400.000000,-400.000000,-400.000000,-400.000000,-400.000000,-400.000000,6
385012661,0.954962,-5.873966,-6.828928,2.459502,3.891945,-6.351447,-400.000000,-400.000000,-400.000000,-400.000000,-400.000000,-400.000000,6
385014659,0.957489,-5.871105,-6.828594,2.456808,3.893042,-6.349850,-400.000000,-400.000000,-400.000000,-400.000000,-400.000000,-400.000000,6
385016657,0.964785,-5.864525,-6.829309,2.449870,3.897047,-6.346917,-400.000000,-400.000000,-400.000000,-400.000000,-400.000000,-400.000000,6
385018654,0.973797,-5.859470,-6.833267,2.442837,3.903532,-6.346369,-400.000000,-400.000000,-400.000000,-400.000000,-400.000000,-400.000000,6
385020651,0.964546,-5.873013,-6.837559,2.454233,3.901052,-6.355286,-400.000000,-400.000000,-400.000000,-400.000000,-400.000000,-400.000000,6
385022648,1.003838,-5.866528,-6.870365,2.431345,3.937101,-6.368446,-400.000000,-400.000000,-400.000000,-400.000000,-400.000000,-400.000000,6
385024646,1.028776,-5.866909,-6.895685,2.419066,3.962231,-6.381297,-400.000000,-400.000000,-400.000000,-400.000000,-400.000000,-400.000000,6
385026643,1.024771,-5.887318,-6.912088,2.431273,3.968430,-6.399703,-400.000000,-400.000000,-400.000000,-400.000000,-400.000000,-400.000000,6
385028641,1.010132,-5.895329,-6.905460,2.442598,3.957796,-6.400394,-400.000000,-400.000000,-400.000000,-400.000000,-400.000000,-400.000000,6
385030638,0.997114,-5.908632,-6.905746,2.455759,3.951430,-6.407189,-400.000000,-400.000000,-400.000000,-400.000000,-400.000000,-400.000000,6
385032636,0.978422,-5.909586,-6.888008,2.465582,3.933215,-6.398797,-400.000000,-400.000000,-400.000000,-400.000000,-400.000000,-400.000000,6
385034633,0.955057,-5.901766,-6.856823,2.473354,3.905940,-6.379294,-400.000000,-400.000000,-400.000000,-400.000000,-400.000000,-400.000000,6
385036632,0.952625,-5.891180,-6.843805,2.469277,3.898215,-6.367493,-400.000000,-400.000000,-400.000000,-400.000000,-400.000000,-400.000000,6
385038628,0.980091,-5.900908,-6.880999,2.460408,3.930545,-6.390953,-400.000000,-400.000000,-400.000000,-400.000000,-400.000000,-400.000000,6
385040626,1.014662,-5.900717,-6.915379,2.443027,3.965020,-6.408048,-400.000000,-400.000000,-400.000000,-400.000000,-400.000000,-400.000000,6
385042624,1.016283,-5.890703,-6.906986,2.437210,3.961635,-6.398845,-400.000000,-400.000000,-400.000000,-400.000000,-400.000000,-400.000000,6
385044621,1.010323,-5.884695,-6.895018,2.437186,3.952670,-6.389856,-400.000000,-400.000000,-400.000000,-400.000000,-400.000000,-400.000000,6
385046619,1.003075,-5.880690,-6.883764,2.438807,3.943419,-6.382227,-400.000000,-400.000000,-400.000000,-400.000000,-400.000000,-400.000000,6
385048616,1.001310,-5.875492,-6.876802,2.437091,3.939056,-6.376147,-400.000000,-400.000000,-400.000000,-400.000000,-400.000000,-400.000000,6
385050613,0.990057,-5.880022,-6.870079,2.444983,3.930068,-6.375051,-400.000000,-400.000000,-400.000000,-400.000000,-400.000000,-400.000000,6
385052611,0.966406,-5.894136,-6.860542,2.463865,3.913474,-6.377339,-400.000000,-400.000000,-400.000000,-400.000000,-400.000000,-400.000000,6
385054608,0.951624,-5.892563,-6.844187,2.470469,3.897905,-6.368375,-400.000000,-400.000000,-400.000000,-400.000000,-400.000000,-400.000000,6
385056607,0.946617,-5.886936,-6.833553,2.470160,3.890085,-6.360245,-400.000000,-400.000000,-400.000000,-400.000000,-400.000000,-400.000000,6
385058604,0.943995,-5.897141,-6.841135,2.476573,3.892565,-6.369138,-400.000000,-400.000000,-400.000000,-400.000000,-400.000000,-400.000000,6
385060601,0.982571,-5.897856,-6.880426,2.457643,3.931499,-6.389141,-400.000000,-400.000000,-400.000000,-400.000000,-400.000000,-400.000000,6
385062598,1.006222,-5.900383,-6.906605,2.447081,3.956413,-6.403494,-400.000000,-400.000000,-400.000000,-400.000000,-400.000000,-400.000000,6
385064596,1.009417,-5.903244,-6.912661,2.446914,3.961039,-6.407952,-400.000000,-400.000000,-400.000000,-400.000000,-400.000000,-400.000000,6
385066593,1.010895,-5.905104,-6.915998,2.447104,3.963447,-6.410551,-400.000000,-400.000000,-400.000000,-400.000000,-400.000000,-400.000000,6
385068590,1.000929,-5.904150,-6.905079,2.451611,3.953004,-6.404614,-400.000000,-400.000000,-400.000000,-400.000000,-400.000000,-400.000000,6
385070588,0.975513,-5.910158,-6.885672,2.467322,3.930593,-6.397915,-400.000000,-400.000000,-400.000000,-400.000000,-400.000000,-400.000000,6
385072585,0.949097,-5.905628,-6.854725,2.478266,3.901911,-6.380177,-400.000000,-400.000000,-400.000000,-400.000000,-400.000000,-400.000000,6
385074583,0.961399,-5.880833,-6.842232,2.459717,3.901815,-6.361532,-400.000000,-400.000000,-400.000000,-400.000000,-400.000000,-400.000000,6
385076581,0.966978,-5.873871,-6.840849,2.453446,3.903913,-6.357360,-400.000000,-400.000000,-400.000000,-400.000000,-400.000000,-400.000000,6
385078578,0.974226,-5.877399,-6.851625,2.451587,3.912926,-6.364512,-400.000000,-400.000000,-400.000000,-400.000000,-400.000000,-400.000000,6
385080575,0.988150,-5.871582,-6.859732,2.441716,3.923941,-6.365657,-400.000000,-400.000000,-400.000000,-400.000000,-400.000000,-400.000000,6
385082573,1.006317,-5.837250,-6.843567,2.415466,3.924942,-6.340408,-400.000000,-400.000000,-400.000000,-400.000000,-400.000000,-400.000000,6
385084570,1.028967,-5.810070,-6.839037,2.390552,3.934002,-6.324553,-400.000000,-400.000000,-400.000000,-400.000000,-400.000000,-400.000000,6
385086567,1.020432,-5.790091,-6.810522,2.384830,3.915477,-6.300306,-400.000000,-400.000000,-400.000000,-400.000000,-400.000000,-400.000000,6
385088565,1.015663,-5.778551,-6.794214,2.381444,3.904939,-6.286383,-400.000000,-400.000000,-400.000000,-400.000000,-400.000000,-400.000000,6
385090562,1.001406,-5.762482,-6.763887,2.380538,3.882647,-6.263185,-400.000000,-400.000000,-400.000000,-400.000000,-400.000000,-400.000000,6
385092559,0.991249,-5.755997,-6.747246,2.382374,3.869247,-6.251621,-400.000000,-400.000000,-400.000000,-400.000000,-400.000000,-400.000000,6
385094557,0.974369,-5.743742,-6.718111,2.384686,3.846240,-6.230927,-400.000000,-400.000000,-400.000000,-400.000000,-400.000000,-400.000000,6
385096555,0.958967,-5.721569,-6.680536,2.381301,3.819752,-6.201053,-400.000000,-400.000000,-400.000000,-400.000000,-400.000000,-400.000000,6
385098552,0.982809,-5.700636,-6.683445,2.358913,3.833127,-6.192040,-400.000000,-400.000000,-400.000000,-400.000000,-400.000000,-400.000000,6
385100550,1.010180,-5.697632,-6.707811,2.343726,3.858995,-6.202722,-400.000000,-400.000000,-400.000000,-400.000000,-400.000000,-400.000000,6
385102547,1.009941,-5.697012,-6.706953,2.343535,3.858447,-6.201982,-400.000000,-400.000000,-400.000000,-400.000000,-400.000000,-400.000000,6
385104545,1.034212,-5.688620,-6.722832,2.327204,3.878522,-6.205726,-400.000000,-400.000000,-400.000000,-400.000000,-400.000000,-400.000000,6
385106542,1.038599,-5.697060,-6.735659,2.329230,3.887129,-6.216359,-400.000000,-400.000000,-400.000000,-400.000000,-400.000000,-400.000000,6
385108539,1.036072,-5.679035,-6.715107,2.321482,3.875589,-6.197071,-400.000000,-400.000000,-400.000000,-400.000000,-400.000000,-400.000000,6
385110537,1.023102,-5.676842,-6.699944,2.326870,3.861523,-6.188393,-400.000000,-400.000000,-400.000000,-400.000000,-400.000000,-400.000000,6
385112534,1.005459,-5.672693,-6.678152,2.333617,3.841805,-6.175423,-400.000000,-400.000000,-400.000000,-400.000000,-400.000000,-400.000000,6
385114532,1.007509,-5.652380,-6.659889,2.322435,3.833699,-6.156135,-400.000000,-400.000000,-400.000000,-400.000000,-400.000000,-400.000000,6
385116530,1.009130,-5.650949,-6.660080,2.320910,3.834605,-6.155515,-400.000000,-400.000000,-400.000000,-400.000000,-400.000000,-400.000000,6
385118527,1.008844,-5.668688,-6.677532,2.329922,3.843188,-6.173110,-400.000000,-400.000000,-400.000000,-400.000000,-400.000000,-400.000000,6
385120524,1.021576,-5.689287,-6.710863,2.333856,3.866220,-6.200075,-400.000000,-400.000000,-400.000000,-400.000000,-400.000000,-400.000000,6
385122522,1.023102,-5.713654,-6.736755,2.345276,3.879929,-6.225204,-400.000000,-400.000000,-400.000000,-400.000000,-400.000000,-400.000000,6
385124519,1.043844,-5.742598,-6.786442,2.349377,3.915143,-6.264520,-400.000000,-400.000000,-400.000000,-400.000000,-400.000000,-400.000000,6
385126517,1.052475,-5.756044,-6.808519,2.351785,3.930497,-6.282282,-400.000000,-400.000000,-400.000000,-400.000000,-400.000000,-400.000000,6
385128514,1.037788,-5.772543,-6.810331,2.367377,3.924060,-6.291437,-400.000000,-400.000000,-400.000000,-400.000000,-400.000000,-400.000000,6
385130511,1.008749,-5.790615,-6.799364,2.390933,3.904057,-6.294990,-400.000000,-400.000000,-400.000000,-400.000000,-400.000000,-400.000000,6
385132509,0.993824,-5.812216,-6.806040,2.409196,3.899932,-6.309128,-400.000000,-400.000000,-400.000000,-400.000000,-400.000000,-400.000000,6
385134506,0.989437,-5.815601,-6.805038,2.413082,3.897238,-6.310320,-400.000000,-400.000000,-400.000000,-400.000000,-400.000000,-400.000000,6
385136504,0.986958,-5.833006,-6.819963,2.423024,3.903461,-6.326485,-400.000000,-400.000000,-400.000000,-400.000000,-400.000000,-400.000000,6
385138501,0.982475,-5.850649,-6.833124,2.434087,3.907800,-6.341887,-400.000000,-400.000000,-400.000000,-400.000000,-400.000000,-400.000000,6
385140501,0.976992,-5.868626,-6.845617,2.445817,3.911304,-6.357121,-400.000000,-400.000000,-400.000000,-400.000000,-400.000000,-400.000000,6
385142497,0.992775,-5.892515,-6.885290,2.449870,3.939033,-6.388903,-400.000000,-400.000000,-400.000000,-400.000000,-400.000000,-400.000000,6
385144494,0.983667,-5.914307,-6.897974,2.465320,3.940821,-6.406140,-400.000000,-400.000000,-400.000000,-400.000000,-400.000000,-400.000000,6
385146492,0.986290,-5.931234,-6.917524,2.472472,3.951907,-6.424379,-400.000000,-400.000000,-400.000000,-400.000000,-400.000000,-400.000000,6
385148489,0.989962,-5.925369,-6.915331,2.467704,3.952646,-6.420350,-400.000000,-400.000000,-400.000000,-400.000000,-400.000000,-400.000000,6
385150487,0.961256,-5.923843,-6.885099,2.481294,3.923178,-6.404471,-400.000000,-400.000000,-400.000000,-400.000000,-400.000000,-400.000000,6
385152484,0.947285,-5.917501,-6.864786,2.485108,3.906035,-6.391144,-400.000000,-400.000000,-400.000000,-400.000000,-400.000000,-400.000000,6
385154482,0.945854,-5.914402,-6.860256,2.484274,3.903055,-6.387329,-400.000000,-400.000000,-400.000000,-400.000000,-400.000000,-400.000000,6
385156481,0.960302,-5.916023,-6.876326,2.477860,3.918314,-6.396174,-400.000000,-400.000000,-400.000000,-400.000000,-400.000000,-400.000000,6
385158483,0.954628,-5.924654,-6.879282,2.485013,3.916955,-6.401968,-400.000000,-400.000000,-400.000000,-400.000000,-400.000000,-400.000000,6
385160475,0.978422,-5.933952,-6.912374,2.477765,3.945398,-6.423163,-400.000000,-400.000000,-400.000000,-400.000000,-400.000000,-400.000000,6
385162473,0.983381,-5.936098,-6.919479,2.476358,3.951430,-6.427789,-400.000000,-400.000000,-400.000000,-400.000000,-400.000000,-400.000000,6
385164469,0.990534,-5.951357,-6.941891,2.480412,3.966212,-6.446624,-400.000000,-400.000000,-400.000000,-400.000000,-400.000000,-400.000000,6
385166467,0.987339,-5.973005,-6.960344,2.492833,3.973842,-6.466675,-400.000000,-400.000000,-400.000000,-400.000000,-400.000000,-400.000000,6
385168464,0.986814,-5.973577,-6.960392,2.493382,3.973603,-6.466985,-400.000000,-400.000000,-400.000000,-400.000000,-400.000000,-400.000000,6
385170462,0.974464,-5.961418,-6.935883,2.493477,3.955173,-6.448650,-400.000000,-400.000000,-400.000000,-400.000000,-400.000000,-400.000000,6
385172459,0.954580,-5.953312,-6.907892,2.499366,3.931236,-6.430602,-400.000000,-400.000000,-400.000000,-400.000000,-400.000000,-400.000000,6
385174457,0.946331,-5.941820,-6.888151,2.497745,3.917241,-6.414986,-400.000000,-400.000000,-400.000000,-400.000000,-400.000000,-400.000000,6
385176455,0.938320,-5.938005,-6.876326,2.499843,3.907323,-6.407166,-400.000000,-400.000000,-400.000000,-400.000000,-400.000000,-400.000000,6
385178452,0.941896,-5.952406,-6.894302,2.505255,3.918099,-6.423354,-400.000000,-400.000000,-400.000000,-400.000000,-400.000000,-400.000000,6
385180449,0.956726,-5.946827,-6.903553,2.495050,3.930140,-6.425190,-400.000000,-400.000000,-400.000000,-400.000000,-400.000000,-400.000000,6
385182446,0.973797,-5.949306,-6.923103,2.487755,3.948450,-6.436205,-400.000000,-400.000000,-400.000000,-400.000000,-400.000000,-400.000000,6
385184444,0.980949,-5.967951,-6.948900,2.493501,3.964925,-6.458426,-400.000000,-400.000000,-400.000000,-400.000000,-400.000000,-400.000000,6
385186441,0.978374,-5.982494,-6.960869,2.502060,3.969622,-6.471682,-400.000000,-400.000000,-400.000000,-400.000000,-400.000000,-400.000000,6
385188439,0.981331,-5.977297,-6.958628,2.497983,3.969979,-6.467962,-400.000000,-400.000000,-400.000000,-400.000000,-400.000000,-400.000000,6
385190436,0.958633,-5.962086,-6.920719,2.501726,3.939676,-6.441402,-400.000000,-400.000000,-400.000000,-400.000000,-400.000000,-400.000000,6
385192433,0.925446,-5.947208,-6.872654,2.510881,3.899050,-6.409931,-400.000000,-400.000000,-400.000000,-400.000000,-400.000000,-400.000000,6
385194431,0.923824,-5.930758,-6.854582,2.503467,3.889203,-6.392670,-400.000000,-400.000000,-400.000000,-400.000000,-400.000000,-400.000000,6
385196428,0.920248,-5.926085,-6.846333,2.502918,3.883290,-6.386209,-400.000000,-400.000000,-400.000000,-400.000000,-400.000000,-400.000000,6
385198426,0.935030,-5.918789,-6.853819,2.491879,3.894424,-6.386304,-400.000000,-400.000000,-400.000000,-400.000000,-400.000000,-400.000000,6
385200423,0.933933,-5.916309,-6.850243,2.491188,3.892088,-6.383276,-400.000000,-400.000000,-400.000000,-400.000000,-400.000000,-400.000000,6
385202421,0.961876,-5.917358,-6.879234,2.477741,3.920555,-6.398296,-400.000000,-400.000000,-400.000000,-400.000000,-400.000000,-400.000000,6
385204418,0.958395,-5.914545,-6.872940,2.478075,3.915668,-6.393743,-400.000000,-400.000000,-400.000000,-400.000000,-400.000000,-400.000000,6
385206415,0.939178,-5.900288,-6.839466,2.480555,3.889322,-6.369877,-400.000000,-400.000000,-400.000000,-400.000000,-400.000000,-400.000000,6
385208413,0.906849,-5.877829,-6.784678,2.485490,3.845763,-6.331253,-400.000000,-400.000000,-400.000000,-400.000000,-400.000000,-400.000000,6
385210410,0.892019,-5.830479,-6.722498,2.469230,3.807259,-6.276488,-400.000000,-400.000000,-400.000000,-400.000000,-400.000000,-400.000000,6
385212408,0.888729,-5.774689,-6.663418,2.442980,3.776073,-6.219053,-400.000000,-400.000000,-400.000000,-400.000000,-400.000000,-400.000000,6
385214405,0.899601,-5.716467,-6.616068,2.408433,3.757834,-6.166267,-400.000000,-400.000000,-400.000000,-400.000000,-400.000000,-400.000000,6
385216403,0.914669,-5.637503,-6.552172,2.361417,3.733420,-6.094837,-400.000000,-400.000000,-400.000000,-400.000000,-400.000000,-400.000000,6
385218400,0.943708,-5.562353,-6.506062,2.309322,3.724885,-6.034207,-400.000000,-400.000000,-400.000000,-400.000000,-400.000000,-400.000000,6
385220398,1.015615,-5.461264,-6.476879,2.222824,3.746247,-5.969071,-400.000000,-400.000000,-400.000000,-400.000000,-400.000000,-400.000000,6
385222395,1.082134,-5.356884,-6.439018,2.137375,3.760576,-5.897951,-400.000000,-400.000000,-400.000000,-400.000000,-400.000000,-400.000000,6
385224393,1.119947,-5.307388,-6.427336,2.093720,3.773642,-5.867362,-400.000000,-400.000000,-400.000000,-400.000000,-400.000000,-400.000000,6
385226390,1.195574,-5.243826,-6.439400,2.024126,3.817487,-5.841613,-400.000000,-400.000000,-400.000000,-400.000000,-400.000000,-400.000000,6
385228387,1.300240,-5.168438,-6.468678,1.934099,3.884459,-5.818558,-400.000000,-400.000000,-400.000000,-400.000000,-400.000000,-400.000000,6
385230385,1.347971,-5.086470,-6.434441,1.869249,3.891206,-5.760455,-400.000000,-400.000000,-400.000000,-400.000000,-400.000000,-400.000000,6
385232382,1.381922,-4.987097,-6.369019,1.802588,3.875470,-5.678058,-400.000000,-400.000000,-400.000000,-400.000000,-400.000000,-400.000000,6
385234380,1.404285,-4.884434,-6.288719,1.740074,3.846502,-5.586576,-400.000000,-400.000000,-400.000000,-400.000000,-400.000000,-400.000000,6
385236377,1.435328,-4.834747,-6.270075,1.699710,3.852701,-5.552411,-400.000000,-400.000000,-400.000000,-400.000000,-400.000000,-400.000000,6
385238376,1.458263,-4.884577,-6.342840,1.713157,3.900552,-5.613708,-400.000000,-400.000000,-400.000000,-400.000000,-400.000000,-400.000000,6
385240372,1.486444,-5.033112,-6.519556,1.773334,4.003000,-5.776334,-400.000000,-400.000000,-400.000000,-400.000000,-400.000000,-400.000000,6
385242372,1.498795,-5.244446,-6.743240,1.872826,4.121017,-5.993843,-400.000000,-400.000000,-400.000000,-400.000000,-400.000000,-400.000000,6
385244368,1.502228,-5.500078,-7.002306,1.998925,4.252267,-6.251192,-400.000000,-400.000000,-400.000000,-400.000000,-400.000000,-400.000000,6
385246365,1.478672,-5.785751,-7.264423,2.153540,4.371548,-6.525087,-400.000000,-400.000000,-400.000000,-400.000000,-400.000000,-400.000000,6
385248363,1.430225,-6.116438,-7.546663,2.343106,4.488444,-6.831551,-400.000000,-400.000000,-400.000000,-400.000000,-400.000000,-400.000000,6
385250360,1.342773,-6.418657,-7.761431,2.537942,4.552102,-7.090044,-400.000000,-400.000000,-400.000000,-400.000000,-400.000000,-400.000000,6
385252358,1.250648,-6.600523,-7.851171,2.674937,4.550910,-7.225847,-400.000000,-400.000000,-400.000000,-400.000000,-400.000000,-400.000000,6
385254355,1.207018,-6.657314,-7.864332,2.725148,4.535675,-7.260823,-400.000000,-400.000000,-400.000000,-400.000000,-400.000000,-400.000000,6
385256354,1.167917,-6.641197,-7.809114,2.736640,4.488516,-7.225156,-400.000000,-400.000000,-400.000000,-400.000000,-400.000000,-400.000000,6
385258351,1.106787,-6.603289,-7.710075,2.748251,4.408431,-7.156682,-400.000000,-400.000000,-400.000000,-400.000000,-400.000000,-400.000000,6
385260348,1.093912,-6.538343,-7.632256,2.722216,4.363084,-7.085299,-400.000000,-400.000000,-400.000000,-400.000000,-400.000000,-400.000000,6
385262345,1.091862,-6.471300,-7.563162,2.689719,4.327512,-7.017231,-400.000000,-400.000000,-400.000000,-400.000000,-400.000000,-400.000000,6
385264343,1.087093,-6.394625,-7.481718,2.653766,4.284406,-6.938171,-400.000000,-400.000000,-400.000000,-400.000000,-400.000000,-400.000000,6
385266340,1.072454,-6.313276,-7.385731,2.620411,4.229093,-6.849504,-400.000000,-400.000000,-400.000000,-400.000000,-400.000000,-400.000000,6
385268337,1.064730,-6.237888,-7.302618,2.586579,4.183674,-6.770253,-400.000000,-400.000000,-400.000000,-400.000000,-400.000000,-400.000000,6
385270335,1.050234,-6.162882,-7.213116,2.556324,4.131675,-6.687999,-400.000000,-400.000000,-400.000000,-400.000000,-400.000000,-400.000000,6
385272332,1.024818,-6.102848,-7.127666,2.539015,4.076242,-6.615257,-400.000000,-400.000000,-400.000000,-400.000000,-400.000000,-400.000000,6
385274330,1.019573,-6.063366,-7.082939,2.521896,4.051256,-6.573153,-400.000000,-400.000000,-400.000000,-400.000000,-400.000000,-400.000000,6
385276329,1.013041,-6.037092,-7.050133,2.512026,4.031587,-6.543612,-400.000000,-400.000000,-400.000000,-400.000000,-400.000000,-400.000000,6
385278325,1.009369,-6.011534,-7.020903,2.501082,4.015136,-6.516218,-400.000000,-400.000000,-400.000000,-400.000000,-400.000000,-400.000000,6
385280322,1.005411,-5.994606,-7.000017,2.494597,4.002714,-6.497312,-400.000000,-400.000000,-400.000000,-400.000000,-400.000000,-400.000000,6
385282320,1.001883,-5.981302,-6.983185,2.489710,3.992534,-6.482244,-400.000000,-400.000000,-400.000000,-400.000000,-400.000000,-400.000000,6
385284317,1.012897,-5.982065,-6.994963,2.484584,4.003930,-6.488514,-400.000000,-400.000000,-400.000000,-400.000000,-400.000000,-400.000000,6
385286315,1.011610,-5.975342,-6.986952,2.481866,3.999281,-6.481147,-400.000000,-400.000000,-400.000000,-400.000000,-400.000000,-400.000000,6
385288312,1.013803,-5.962753,-6.976557,2.474475,3.995180,-6.469655,-400.000000,-400.000000,-400.000000,-400.000000,-400.000000,-400.000000,6
385290310,0.997734,-5.943727,-6.941462,2.472997,3.969598,-6.442595,-400.000000,-400.000000,-400.000000,-400.000000,-400.000000,-400.000000,6
385292307,0.966597,-5.931854,-6.898451,2.482629,3.932524,-6.415153,-400.000000,-400.000000,-400.000000,-400.000000,-400.000000,-400.000000,6
385294306,0.949907,-5.926418,-6.876326,2.488256,3.913116,-6.401372,-400.000000,-400.000000,-400.000000,-400.000000,-400.000000,-400.000000,6
385296303,0.959492,-5.910158,-6.869650,2.475333,3.914571,-6.389904,-400.000000,-400.000000,-400.000000,-400.000000,-400.000000,-400.000000,6
385298300,0.958157,-5.912971,-6.871128,2.477407,3.914642,-6.392050,-400.000000,-400.000000,-400.000000,-400.000000,-400.000000,-400.000000,6
385300297,0.972795,-5.918741,-6.891537,2.472973,3.932166,-6.405139,-400.000000,-400.000000,-400.000000,-400.000000,-400.000000,-400.000000,6
385302295,0.989962,-5.928326,-6.918287,2.469182,3.954124,-6.423306,-400.000000,-400.000000,-400.000000,-400.000000,-400.000000,-400.000000,6
385304292,0.997448,-5.944777,-6.942225,2.473664,3.969836,-6.443501,-400.000000,-400.000000,-400.000000,-400.000000,-400.000000,-400.000000,6
385306290,0.993395,-5.941629,-6.935024,2.474117,3.964210,-6.438327,-400.000000,-400.000000,-400.000000,-400.000000,-400.000000,-400.000000,6
385308287,0.994444,-5.935621,-6.930065,2.470589,3.962255,-6.432843,-400.000000,-400.000000,-400.000000,-400.000000,-400.000000,-400.000000,6
385310284,0.996304,-5.935144,-6.931448,2.469420,3.963876,-6.433296,-400.000000,-400.000000,-400.000000,-400.000000,-400.000000,-400.000000,6
385312282,0.973845,-5.922413,-6.896257,2.474284,3.935051,-6.409335,-400.000000,-400.000000,-400.000000,-400.000000,-400.000000,-400.000000,6
385314280,0.959682,-5.901289,-6.860971,2.470803,3.910327,-6.381130,-400.000000,-400.000000,-400.000000,-400.000000,-400.000000,-400.000000,6
385316277,0.951862,-5.895185,-6.847048,2.471662,3.899455,-6.371117,-400.000000,-400.000000,-400.000000,-400.000000,-400.000000,-400.000000,6
385318275,0.969076,-5.903053,-6.872129,2.466989,3.920603,-6.387591,-400.000000,-400.000000,-400.000000,-400.000000,-400.000000,-400.000000,6
385320272,0.969267,-5.904436,-6.873703,2.467585,3.921485,-6.389070,-400.000000,-400.000000,-400.000000,-400.000000,-400.000000,-400.000000,6
385322270,0.993776,-5.910730,-6.904507,2.458477,3.949142,-6.407619,-400.000000,-400.000000,-400.000000,-400.000000,-400.000000,-400.000000,6
385324267,1.007223,-5.923128,-6.930351,2.457952,3.968787,-6.426740,-400.000000,-400.000000,-400.000000,-400.000000,-400.000000,-400.000000,6
385326264,1.005316,-5.929375,-6.934690,2.462029,3.970003,-6.432033,-400.000000,-400.000000,-400.000000,-400.000000,-400.000000,-400.000000,6
385328262,1.001310,-5.922842,-6.924152,2.460766,3.962731,-6.423497,-400.000000,-400.000000,-400.000000,-400.000000,-400.000000,-400.000000,6
385330259,0.990200,-5.907345,-6.897545,2.458572,3.943872,-6.402445,-400.000000,-400.000000,-400.000000,-400.000000,-400.000000,-400.000000,6
385332257,0.972366,-5.896521,-6.868887,2.462077,3.920627,-6.382704,-400.000000,-400.000000,-400.000000,-400.000000,-400.000000,-400.000000,6
385334254,0.959110,-5.892849,-6.851959,2.466869,3.905535,-6.372404,-400.000000,-400.000000,-400.000000,-400.000000,-400.000000,-400.000000,6
385336251,0.957918,-5.883646,-6.841564,2.462864,3.899741,-6.362605,-400.000000,-400.000000,-400.000000,-400.000000,-400.000000,-400.000000,6
385338249,0.961494,-5.873728,-6.835222,2.456117,3.898358,-6.354475,-400.000000,-400.000000,-400.000000,-400.000000,-400.000000,-400.000000,6
385340246,0.981474,-5.875206,-6.856680,2.446866,3.919077,-6.365943,-400.000000,-400.000000,-400.000000,-400.000000,-400.000000,-400.000000,6
385342244,1.016283,-5.881739,-6.898022,2.432728,3.957152,-6.389880,-400.000000,-400.000000,-400.000000,-400.000000,-400.000000,-400.000000,6
385344243,1.015711,-5.883980,-6.899691,2.434134,3.957701,-6.391835,-400.000000,-400.000000,-400.000000,-400.000000,-400.000000,-400.000000,6
385346239,1.024914,-5.898523,-6.923437,2.436805,3.974175,-6.410980,-400.000000,-400.000000,-400.000000,-400.000000,-400.000000,-400.000000,6
385348237,1.016665,-5.910826,-6.927490,2.447081,3.972077,-6.419158,-400.000000,-400.000000,-400.000000,-400.000000,-400.000000,-400.000000,6
385350235,0.999022,-5.906248,-6.905270,2.453613,3.952146,-6.405759,-400.000000,-400.000000,-400.000000,-400.000000,-400.000000,-400.000000,6
385352232,0.970030,-5.892849,-6.862879,2.461410,3.916454,-6.377864,-400.000000,-400.000000,-400.000000,-400.000000,-400.000000,-400.000000,6
385354229,0.951242,-5.873728,-6.824970,2.461243,3.888106,-6.349349,-400.000000,-400.000000,-400.000000,-400.000000,-400.000000,-400.000000,6
385356228,0.957537,-5.863142,-6.820679,2.452803,3.889108,-6.341910,-400.000000,-400.000000,-400.000000,-400.000000,-400.000000,-400.000000,6
385358225,0.968027,-5.865479,-6.833506,2.448726,3.900766,-6.349492,-400.000000,-400.000000,-400.000000,-400.000000,-400.000000,-400.000000,6
385360221,0.991488,-5.868006,-6.859493,2.438259,3.925490,-6.363750,-400.000000,-400.000000,-400.000000,-400.000000,-400.000000,-400.000000,6
385362219,1.003504,-5.872679,-6.876183,2.434587,3.939843,-6.374431,-400.000000,-400.000000,-400.000000,-400.000000,-400.000000,-400.000000,6
385364216,1.013517,-5.883121,-6.896639,2.434802,3.955078,-6.389880,-400.000000,-400.000000,-400.000000,-400.000000,-400.000000,-400.000000,6
385366215,1.008081,-5.889702,-6.897783,2.440810,3.952932,-6.393743,-400.000000,-400.000000,-400.000000,-400.000000,-400.000000,-400.000000,6
385368215,1.004791,-5.881357,-6.886148,2.438283,3.945470,-6.383753,-400.000000,-400.000000,-400.000000,-400.000000,-400.000000,-400.000000,6
385370215,1.007128,-5.869675,-6.876802,2.431273,3.941965,-6.373239,-400.000000,-400.000000,-400.000000,-400.000000,-400.000000,-400.000000,6
385372206,0.985527,-5.856705,-6.842232,2.435589,3.913879,-6.349468,-400.000000,-400.000000,-400.000000,-400.000000,-400.000000,-400.000000,6
385374204,0.979853,-5.839920,-6.819773,2.430034,3.899813,-6.329846,-400.000000,-400.000000,-400.000000,-400.000000,-400.000000,-400.000000,6
385376202,0.968504,-5.825233,-6.793737,2.428365,3.881121,-6.309485,-400.000000,-400.000000,-400.000000,-400.000000,-400.000000,-400.000000,6
385378199,0.980139,-5.825233,-6.805372,2.422547,3.892756,-6.315303,-400.000000,-400.000000,-400.000000,-400.000000,-400.000000,-400.000000,6
385380196,1.003027,-5.818558,-6.821585,2.407765,3.912306,-6.320071,-400.000000,-400.000000,-400.000000,-400.000000,-400.000000,-400.000000,6
385382194,1.023579,-5.819750,-6.843328,2.398086,3.933454,-6.331539,-400.000000,-400.000000,-400.000000,-400.000000,-400.000000,-400.000000,6
385384191,1.025581,-5.830908,-6.856489,2.402663,3.941035,-6.343699,-400.000000,-400.000000,-400.000000,-400.000000,-400.000000,-400.000000,6
385386189,1.024151,-5.832005,-6.856155,2.403927,3.940153,-6.344080,-400.000000,-400.000000,-400.000000,-400.000000,-400.000000,-400.000000,6
385388186,1.039648,-5.815792,-6.855440,2.388072,3.947544,-6.335616,-400.000000,-400.000000,-400.000000,-400.000000,-400.000000,-400.000000,6
385390184,1.019144,-5.815935,-6.835079,2.398396,3.927112,-6.325507,-400.000000,-400.000000,-400.000000,-400.000000,-400.000000,-400.000000,6
385392181,1.003218,-5.820274,-6.823492,2.408528,3.913355,-6.321883,-400.000000,-400.000000,-400.000000,-400.000000,-400.000000,-400.000000,6
385394178,0.995016,-5.813551,-6.808567,2.409267,3.901792,-6.311059,-400.000000,-400.000000,-400.000000,-400.000000,-400.000000,-400.000000,6
385396176,0.998211,-5.805349,-6.803560,2.403569,3.900886,-6.304455,-400.000000,-400.000000,-400.000000,-400.000000,-400.000000,-400.000000,6
385398173,1.019526,-5.808640,-6.828165,2.394557,3.923845,-6.318402,-400.000000,-400.000000,-400.000000,-400.000000,-400.000000,-400.000000,6
385400171,1.040363,-5.804205,-6.844568,2.381921,3.942466,-6.324387,-400.000000,-400.000000,-400.000000,-400.000000,-400.000000,-400.000000,6
385402168,1.053190,-5.806637,-6.859827,2.376723,3.956509,-6.333232,-400.000000,-400.000000,-400.000000,-400.000000,-400.000000,-400.000000,6
385404166,1.053476,-5.824375,-6.877851,2.385449,3.965664,-6.351113,-400.000000,-400.000000,-400.000000,-400.000000,-400.000000,-400.000000,6
385406163,1.073647,-5.831194,-6.904840,2.378774,3.989244,-6.368017,-400.000000,-400.000000,-400.000000,-400.000000,-400.000000,-400.000000,6
385408161,1.082039,-5.818224,-6.900263,2.368093,3.991151,-6.359243,-400.000000,-400.000000,-400.000000,-400.000000,-400.000000,-400.000000,6
385410158,1.055288,-5.800962,-6.856251,2.372837,3.955770,-6.328607,-400.000000,-400.000000,-400.000000,-400.000000,-400.000000,-400.000000,6
385412156,1.031971,-5.789709,-6.821680,2.378869,3.926826,-6.305695,-400.000000,-400.000000,-400.000000,-400.000000,-400.000000,-400.000000,6
385414153,1.041603,-5.779314,-6.820917,2.368855,3.931260,-6.300116,-400.000000,-400.000000,-400.000000,-400.000000,-400.000000,-400.000000,6
385416151,1.044178,-5.770779,-6.814957,2.363300,3.929567,-6.292868,-400.000000,-400.000000,-400.000000,-400.000000,-400.000000,-400.000000,6
385418148,1.052618,-5.771017,-6.823635,2.359200,3.938127,-6.297326,-400.000000,-400.000000,-400.000000,-400.000000,-400.000000,-400.000000,6
385420146,1.058865,-5.766058,-6.824923,2.353597,3.941894,-6.295490,-400.000000,-400.000000,-400.000000,-400.000000,-400.000000,-400.000000,6
385422143,1.084137,-5.762291,-6.846428,2.339077,3.965282,-6.304359,-400.000000,-400.000000,-400.000000,-400.000000,-400.000000,-400.000000,6
385424141,1.095724,-5.772638,-6.868362,2.338457,3.982043,-6.320500,-400.000000,-400.000000,-400.000000,-400.000000,-400.000000,-400.000000,6
385426138,1.105690,-5.784941,-6.890631,2.339625,3.998160,-6.337786,-400.000000,-400.000000,-400.000000,-400.000000,-400.000000,-400.000000,6
385428136,1.110506,-5.786037,-6.896544,2.337766,4.003525,-6.341290,-400.000000,-400.000000,-400.000000,-400.000000,-400.000000,-400.000000,6
385430133,1.094580,-5.783606,-6.878185,2.344513,3.986382,-6.330895,-400.000000,-400.000000,-400.000000,-400.000000,-400.000000,-400.000000,6
385432131,1.081133,-5.779791,-6.860924,2.349329,3.971028,-6.320357,-400.000000,-400.000000,-400.000000,-400.000000,-400.000000,-400.000000,6
385434128,1.076174,-5.775976,-6.852150,2.349901,3.964162,-6.314063,-400.000000,-400.000000,-400.000000,-400.000000,-400.000000,-400.000000,6
385436125,1.071310,-5.770493,-6.841803,2.349591,3.956556,-6.306148,-400.000000,-400.000000,-400.000000,-400.000000,-400.000000,-400.000000,6
385438123,1.071835,-5.773640,-6.845474,2.350903,3.958654,-6.309557,-400.000000,-400.000000,-400.000000,-400.000000,-400.000000,-400.000000,6
385440120,1.086569,-5.776453,-6.863022,2.344942,3.974795,-6.319737,-400.000000,-400.000000,-400.000000,-400.000000,-400.000000,-400.000000,6
385442118,1.114082,-5.778694,-6.892776,2.332306,4.003429,-6.335735,-400.000000,-400.000000,-400.000000,-400.000000,-400.000000,-400.000000,6
385444115,1.121092,-5.785322,-6.906414,2.332115,4.013753,-6.345868,-400.000000,-400.000000,-400.000000,-400.000000,-400.000000,-400.000000,6
385446114,1.129007,-5.783987,-6.912994,2.327490,4.021001,-6.348491,-400.000000,-400.000000,-400.000000,-400.000000,-400.000000,-400.000000,6
385448110,1.127243,-5.779648,-6.906891,2.326202,4.017067,-6.343269,-400.000000,-400.000000,-400.000000,-400.000000,-400.000000,-400.000000,6
385450108,1.106930,-5.778265,-6.885195,2.335668,3.996062,-6.331730,-400.000000,-400.000000,-400.000000,-400.000000,-400.000000,-400.000000,6
385452106,1.090288,-5.769014,-6.859303,2.339363,3.974795,-6.314158,-400.000000,-400.000000,-400.000000,-400.000000,-400.000000,-400.000000,6
385454103,1.087093,-5.763912,-6.851006,2.338409,3.969049,-6.307459,-400.000000,-400.000000,-400.000000,-400.000000,-400.000000,-400.000000,6
385456102,1.070929,-5.763245,-6.834173,2.346158,3.952551,-6.298709,-400.000000,-400.000000,-400.000000,-400.000000,-400.000000,-400.000000,6
385458099,1.056004,-5.767918,-6.823921,2.355957,3.939962,-6.295919,-400.000000,-400.000000,-400.000000,-400.000000,-400.000000,-400.000000,6
385460096,1.052713,-5.782032,-6.834745,2.364659,3.943729,-6.308389,-400.000000,-400.000000,-400.000000,-400.000000,-400.000000,-400.000000,6
385462093,1.090002,-5.792809,-6.882811,2.351403,3.986406,-6.337810,-400.000000,-400.000000,-400.000000,-400.000000,-400.000000,-400.000000,6
385464091,1.102257,-5.804014,-6.906271,2.350879,4.004264,-6.355143,-400.000000,-400.000000,-400.000000,-400.000000,-400.000000,-400.000000,6
385466088,1.093674,-5.810738,-6.904411,2.358532,3.999043,-6.357574,-400.000000,-400.000000,-400.000000,-400.000000,-400.000000,-400.000000,6
385468086,1.082802,-5.803061,-6.885862,2.360129,3.984332,-6.344461,-400.000000,-400.000000,-400.000000,-400.000000,-400.000000,-400.000000,6
385470083,1.069164,-5.794334,-6.863499,2.362585,3.966331,-6.328917,-400.000000,-400.000000,-400.000000,-400.000000,-400.000000,-400.000000,6
385472081,1.042747,-5.784416,-6.827164,2.370834,3.934956,-6.305790,-400.000000,-400.000000,-400.000000,-400.000000,-400.000000,-400.000000,6
385474078,1.024389,-5.780172,-6.804562,2.377892,3.914475,-6.292367,-400.000000,-400.000000,-400.000000,-400.000000,-400.000000,-400.000000,6
385476077,1.013899,-5.776119,-6.790018,2.381110,3.901958,-6.283069,-400.000000,-400.000000,-400.000000,-400.000000,-400.000000,-400.000000,6
385478073,1.014376,-5.785990,-6.800365,2.385807,3.907371,-6.293178,-400.000000,-400.000000,-400.000000,-400.000000,-400.000000,-400.000000,6
385480071,1.020813,-5.793619,-6.814432,2.386403,3.917623,-6.304026,-400.000000,-400.000000,-400.000000,-400.000000,-400.000000,-400.000000,6
385482068,1.037169,-5.805588,-6.842756,2.384210,3.939962,-6.324172,-400.000000,-400.000000,-400.000000,-400.000000,-400.000000,-400.000000,6
385484066,1.044655,-5.826998,-6.871653,2.391171,3.958154,-6.349325,-400.000000,-400.000000,-400.000000,-400.000000,-400.000000,-400.000000,6
385486063,1.036072,-5.840206,-6.876278,2.402067,3.956175,-6.358242,-400.000000,-400.000000,-400.000000,-400.000000,-400.000000,-400.000000,6
385488061,1.015425,-5.839157,-6.854582,2.411866,3.935003,-6.346869,-400.000000,-400.000000,-400.000000,-400.000000,-400.000000,-400.000000,6
385490058,1.017952,-5.848074,-6.866026,2.415061,3.941989,-6.357050,-400.000000,-400.000000,-400.000000,-400.000000,-400.000000,-400.000000,6
385492056,1.007748,-5.851126,-6.858873,2.421689,3.933311,-6.355000,-400.000000,-400.000000,-400.000000,-400.000000,-400.000000,-400.000000,6
385494053,0.976276,-5.845976,-6.822252,2.434850,3.899264,-6.334114,-400.000000,-400.000000,-400.000000,-400.000000,-400.000000,-400.000000,6
385496052,0.976229,-5.845976,-6.822205,2.434874,3.899217,-6.334090,-400.000000,-400.000000,-400.000000,-400.000000,-400.000000,-400.000000,6
385498048,0.982714,-5.861378,-6.844091,2.439332,3.913403,-6.352735,-400.000000,-400.000000,-400.000000,-400.000000,-400.000000,-400.000000,6
385500046,0.989819,-5.873775,-6.863594,2.441978,3.926706,-6.368685,-400.000000,-400.000000,-400.000000,-400.000000,-400.000000,-400.000000,6
385502043,1.008892,-5.878401,-6.887293,2.434754,3.948092,-6.382847,-400.000000,-400.000000,-400.000000,-400.000000,-400.000000,-400.000000,6
385504041,1.023626,-5.886364,-6.909990,2.431369,3.966808,-6.398177,-400.000000,-400.000000,-400.000000,-400.000000,-400.000000,-400.000000,6
385506039,1.025248,-5.889940,-6.915188,2.432346,3.970218,-6.402564,-400.000000,-400.000000,-400.000000,-400.000000,-400.000000,-400.000000,6
385508036,1.014042,-5.893040,-6.907082,2.439499,3.960562,-6.400061,-400.000000,-400.000000,-400.000000,-400.000000,-400.000000,-400.000000,6
385510034,0.994015,-5.897236,-6.891251,2.451611,3.942633,-6.394243,-400.000000,-400.000000,-400.000000,-400.000000,-400.000000,-400.000000,6
385512031,0.966740,-5.895185,-6.861925,2.464223,3.914332,-6.378555,-400.000000,-400.000000,-400.000000,-400.000000,-400.000000,-400.000000,6
385514029,0.954676,-5.898952,-6.853628,2.472138,3.904152,-6.376290,-400.000000,-400.000000,-400.000000,-400.000000,-400.000000,-400.000000,6
385516026,0.965738,-5.906391,-6.872129,2.470326,3.918934,-6.389260,-400.000000,-400.000000,-400.000000,-400.000000,-400.000000,-400.000000,6
385518024,0.963259,-5.912161,-6.875420,2.474451,3.919339,-6.393790,-400.000000,-400.000000,-400.000000,-400.000000,-400.000000,-400.000000,6
385520021,0.975657,-5.906010,-6.881666,2.465177,3.928661,-6.393838,-400.000000,-400.000000,-400.000000,-400.000000,-400.000000,-400.000000,6
385522019,0.998974,-5.905819,-6.904793,2.453423,3.951883,-6.405306,-400.000000,-400.000000,-400.000000,-400.000000,-400.000000,-400.000000,6
385524017,1.000977,-5.905437,-6.906414,2.452230,3.953695,-6.405926,-400.000000,-400.000000,-400.000000,-400.000000,-400.000000,-400.000000,6
385526014,1.011324,-5.904579,-6.915903,2.446628,3.963614,-6.410241,-400.000000,-400.000000,-400.000000,-400.000000,-400.000000,-400.000000,6
385528012,1.005220,-5.898666,-6.903887,2.446723,3.954554,-6.401277,-400.000000,-400.000000,-400.000000,-400.000000,-400.000000,-400.000000,6
385530009,0.984144,-5.903149,-6.887293,2.459502,3.935719,-6.395221,-400.000000,-400.000000,-400.000000,-400.000000,-400.000000,-400.000000,6
385532007,0.965977,-5.905962,-6.871939,2.469993,3.918958,-6.388950,-400.000000,-400.000000,-400.000000,-400.000000,-400.000000,-400.000000,6
385534004,0.947571,-5.894041,-6.841612,2.473235,3.894591,-6.367826,-400.000000,-400.000000,-400.000000,-400.000000,-400.000000,-400.000000,6
385536002,0.946951,-5.885458,-6.832409,2.469254,3.889680,-6.358933,-400.000000,-400.000000,-400.000000,-400.000000,-400.000000,-400.000000,6
385537999,0.948048,-5.890417,-6.838465,2.471185,3.893256,-6.364441,-400.000000,-400.000000,-400.000000,-400.000000,-400.000000,-400.000000,6
385539997,0.960636,-5.897093,-6.857729,2.468228,3.909183,-6.377411,-400.000000,-400.000000,-400.000000,-400.000000,-400.000000,-400.000000,6
385541994,0.975752,-5.905676,-6.881428,2.464962,3.928590,-6.393552,-400.000000,-400.000000,-400.000000,-400.000000,-400.000000,-400.000000,6
385543991,0.978041,-5.915022,-6.893063,2.468491,3.935552,-6.404042,-400.000000,-400.000000,-400.000000,-400.000000,-400.000000,-400.000000,6
385545989,1.008701,-5.921698,-6.930399,2.456498,3.969550,-6.426048,-400.000000,-400.000000,-400.000000,-400.000000,-400.000000,-400.000000,6
385547986,1.011992,-5.918694,-6.930685,2.453351,3.971338,-6.424689,-400.000000,-400.000000,-400.000000,-400.000000,-400.000000,-400.000000,6
385549987,0.988913,-5.914974,-6.903887,2.463031,3.946400,-6.409431,-400.000000,-400.000000,-400.000000,-400.000000,-400.000000,-400.000000,6
385551982,0.964546,-5.905485,-6.870031,2.470469,3.917289,-6.387758,-400.000000,-400.000000,-400.000000,-400.000000,-400.000000,-400.000000,6
385553979,0.959873,-5.884790,-6.844664,2.462459,3.902268,-6.364727,-400.000000,-400.000000,-400.000000,-400.000000,-400.000000,-400.000000,6
385555978,0.954819,-5.879211,-6.834030,2.462196,3.894424,-6.356621,-400.000000,-400.000000,-400.000000,-400.000000,-400.000000,-400.000000,6
385557975,0.963497,-5.877304,-6.840801,2.456903,3.902149,-6.359053,-400.000000,-400.000000,-400.000000,-400.000000,-400.000000,-400.000000,6
385559973,0.977230,-5.879164,-6.856394,2.450967,3.916812,-6.367779,-400.000000,-400.000000,-400.000000,-400.000000,-400.000000,-400.000000,6
385561970,0.991726,-5.882406,-6.874132,2.445340,3.932929,-6.378269,-400.000000,-400.000000,-400.000000,-400.000000,-400.000000,-400.000000,6
385563967,1.007748,-5.886364,-6.894112,2.439308,3.950930,-6.390238,-400.000000,-400.000000,-400.000000,-400.000000,-400.000000,-400.000000,6
385565965,1.019382,-5.893183,-6.912565,2.436900,3.965974,-6.402874,-400.000000,-400.000000,-400.000000,-400.000000,-400.000000,-400.000000,6
385567962,1.020098,-5.894566,-6.914663,2.437234,3.967381,-6.404614,-400.000000,-400.000000,-400.000000,-400.000000,-400.000000,-400.000000,6
385569960,1.005697,-5.887222,-6.892920,2.440763,3.949308,-6.390071,-400.000000,-400.000000,-400.000000,-400.000000,-400.000000,-400.000000,6
385571957,0.983047,-5.876255,-6.859303,2.446604,3.921175,-6.367779,-400.000000,-400.000000,-400.000000,-400.000000,-400.000000,-400.000000,6
385573954,0.965548,-5.865335,-6.830883,2.449894,3.898215,-6.348109,-400.000000,-400.000000,-400.000000,-400.000000,-400.000000,-400.000000,6
385575953,0.969458,-5.859184,-6.828642,2.444863,3.899050,-6.343913,-400.000000,-400.000000,-400.000000,-400.000000,-400.000000,-400.000000,6
385577950,0.971174,-5.868340,-6.839514,2.448583,3.905344,-6.353927,-400.000000,-400.000000,-400.000000,-400.000000,-400.000000,-400.000000,6
385579948,0.973558,-5.875874,-6.849432,2.451158,3.911495,-6.362653,-400.000000,-400.000000,-400.000000,-400.000000,-400.000000,-400.000000,6
385581945,0.981951,-5.871773,-6.853724,2.444911,3.917837,-6.362748,-400.000000,-400.000000,-400.000000,-400.000000,-400.000000,-400.000000,6
385583942,1.010561,-5.875444,-6.886005,2.432442,3.948283,-6.380725,-400.000000,-400.000000,-400.000000,-400.000000,-400.000000,-400.000000,6
385585939,1.008320,-5.879354,-6.887674,2.435517,3.947997,-6.383514,-400.000000,-400.000000,-400.000000,-400.000000,-400.000000,-400.000000,6
385587937,1.012182,-5.874491,-6.886673,2.431154,3.949428,-6.380582,-400.000000,-400.000000,-400.000000,-400.000000,-400.000000,-400.000000,6
385589934,0.994873,-5.871296,-6.866169,2.438211,3.930521,-6.368732,-400.000000,-400.000000,-400.000000,-400.000000,-400.000000,-400.000000,6
385591932,0.970125,-5.859852,-6.829977,2.444863,3.900051,-6.344914,-400.000000,-400.000000,-400.000000,-400.000000,-400.000000,-400.000000,6
385593929,0.958633,-5.846405,-6.805038,2.443886,3.881836,-6.325722,-400.000000,-400.000000,-400.000000,-400.000000,-400.000000,-400.000000,6
385595927,0.952673,-5.836201,-6.788874,2.441764,3.870773,-6.312537,-400.000000,-400.000000,-400.000000,-400.000000,-400.000000,-400.000000,6
385597924,0.962639,-5.837250,-6.799889,2.437305,3.881264,-6.318569,-400.000000,-400.000000,-400.000000,-400.000000,-400.000000,-400.000000,6
385599922,0.978088,-5.838871,-6.816959,2.430391,3.897524,-6.327915,-400.000000,-400.000000,-400.000000,-400.000000,-400.000000,-400.000000,6
385601919,0.999165,-5.843353,-6.842518,2.422094,3.920841,-6.342936,-400.000000,-400.000000,-400.000000,-400.000000,-400.000000,-400.000000,6
385603917,1.016808,-5.852127,-6.868935,2.417660,3.942871,-6.360531,-400.000000,-400.000000,-400.000000,-400.000000,-400.000000,-400.000000,6
385605914,1.017570,-5.856180,-6.873751,2.419305,3.945661,-6.364965,-400.000000,-400.000000,-400.000000,-400.000000,-400.000000,-400.000000,6
385607912,1.010704,-5.850363,-6.861067,2.419829,3.935885,-6.355715,-400.000000,-400.000000,-400.000000,-400.000000,-400.000000,-400.000000,6
385609909,0.993919,-5.841589,-6.835508,2.423835,3.914714,-6.338549,-400.000000,-400.000000,-400.000000,-400.000000,-400.000000,-400.000000,6
385611907,0.973606,-5.833101,-6.806707,2.429748,3.890157,-6.319904,-400.000000,-400.000000,-400.000000,-400.000000,-400.000000,-400.000000,6
385613904,0.971270,-5.822802,-6.794071,2.425766,3.882670,-6.308436,-400.000000,-400.000000,-400.000000,-400.000000,-400.000000,-400.000000,6
385615902,0.961018,-5.813169,-6.774187,2.426076,3.867602,-6.293678,-400.000000,-400.000000,-400.000000,-400.000000,-400.000000,-400.000000,6
385617900,0.956249,-5.818558,-6.774807,2.431154,3.865528,-6.296682,-400.000000,-400.000000,-400.000000,-400.000000,-400.000000,-400.000000,6
385619897,0.973511,-5.823231,-6.796741,2.424860,3.885126,-6.309986,-400.000000,-400.000000,-400.000000,-400.000000,-400.000000,-400.000000,6
385621894,0.996494,-5.827236,-6.823730,2.415371,3.910112,-6.325483,-400.000000,-400.000000,-400.000000,-400.000000,-400.000000,-400.000000,6
385623892,0.999641,-5.836678,-6.836319,2.418518,3.917980,-6.336498,-400.000000,-400.000000,-400.000000,-400.000000,-400.000000,-400.000000,6
385625890,1.022577,-5.839872,-6.862450,2.408648,3.942513,-6.351161,-400.000000,-400.000000,-400.000000,-400.000000,-400.000000,-400.000000,6
385627887,1.025534,-5.837059,-6.862593,2.405763,3.944063,-6.349826,-400.000000,-400.000000,-400.000000,-400.000000,-400.000000,-400.000000,6
385629885,1.001549,-5.834103,-6.835651,2.416277,3.918600,-6.334877,-400.000000,-400.000000,-400.000000,-400.000000,-400.000000,-400.000000,6
385631882,0.975704,-5.828285,-6.803989,2.426291,3.889847,-6.316137,-400.000000,-400.000000,-400.000000,-400.000000,-400.000000,-400.000000,6
385633880,0.954819,-5.818462,-6.773281,2.431822,3.864050,-6.295872,-400.000000,-400.000000,-400.000000,-400.000000,-400.000000,-400.000000,6
385635877,0.956535,-5.809355,-6.765890,2.426410,3.861213,-6.287622,-400.000000,-400.000000,-400.000000,-400.000000,-400.000000,-400.000000,6
385637875,0.964546,-5.811739,-6.776285,2.423596,3.870416,-6.294012,-400.000000,-400.000000,-400.000000,-400.000000,-400.000000,-400.000000,6
385639873,0.983429,-5.816746,-6.800175,2.416658,3.891802,-6.308460,-400.000000,-400.000000,-400.000000,-400.000000,-400.000000,-400.000000,6
385641870,1.003170,-5.829525,-6.832695,2.413177,3.917933,-6.331110,-400.000000,-400.000000,-400.000000,-400.000000,-400.000000,-400.000000,6
385643868,1.012564,-5.844164,-6.856728,2.415800,3.934646,-6.350446,-400.000000,-400.000000,-400.000000,-400.000000,-400.000000,-400.000000,6
385645865,1.008940,-5.852795,-6.861734,2.421927,3.935337,-6.357265,-400.000000,-400.000000,-400.000000,-400.000000,-400.000000,-400.000000,6
385647863,1.014280,-5.840158,-6.854439,2.412939,3.934360,-6.347299,-400.000000,-400.000000,-400.000000,-400.000000,-400.000000,-400.000000,6
385649861,0.999022,-5.828905,-6.827927,2.414942,3.913474,-6.328416,-400.000000,-400.000000,-400.000000,-400.000000,-400.000000,-400.000000,6
385651861,0.986290,-5.830431,-6.816721,2.422071,3.901505,-6.323576,-400.000000,-400.000000,-400.000000,-400.000000,-400.000000,-400.000000,6
385653857,0.973511,-5.827045,-6.800556,2.426767,3.887033,-6.313801,-400.000000,-400.000000,-400.000000,-400.000000,-400.000000,-400.000000,6
385655855,0.971031,-5.807734,-6.778765,2.418351,3.874898,-6.293249,-400.000000,-400.000000,-400.000000,-400.000000,-400.000000,-400.000000,6
385657852,0.968742,-5.806255,-6.774998,2.418756,3.871870,-6.290627,-400.000000,-400.000000,-400.000000,-400.000000,-400.000000,-400.000000,6
385659850,0.976372,-5.817366,-6.793737,2.420497,3.885055,-6.305552,-400.000000,-400.000000,-400.000000,-400.000000,-400.000000,-400.000000,6
385661847,0.991726,-5.822039,-6.813765,2.415156,3.902745,-6.317902,-400.000000,-400.000000,-400.000000,-400.000000,-400.000000,-400.000000,6
385663845,1.000643,-5.826044,-6.826687,2.412701,3.913665,-6.326365,-400.000000,-400.000000,-400.000000,-400.000000,-400.000000,-400.000000,6
385665843,1.013327,-5.831146,-6.844473,2.408910,3.928900,-6.337810,-400.000000,-400.000000,-400.000000,-400.000000,-400.000000,-400.000000,6
385667840,0.999594,-5.826473,-6.826067,2.413440,3.912830,-6.326270,-400.000000,-400.000000,-400.000000,-400.000000,-400.000000,-400.000000,6
385669838,0.992584,-5.817986,-6.810570,2.412701,3.901577,-6.314278,-400.000000,-400.000000,-400.000000,-400.000000,-400.000000,-400.000000,6
385671835,0.980759,-5.814028,-6.794786,2.416635,3.887773,-6.304407,-400.000000,-400.000000,-400.000000,-400.000000,-400.000000,-400.000000,6
385673833,0.963926,-5.811167,-6.775093,2.423620,3.869510,-6.293130,-400.000000,-400.000000,-400.000000,-400.000000,-400.000000,-400.000000,6
