timestamp_us,I_mV,II_mV,III_mV,aVR_mV,aVL_mV,aVF_mV,V1_mV,V2_mV,V3_mV,V4_mV,V5_mV,V6_mV,gain
36111208,-0.928926,-3.196812,-2.267885,2.062869,0.669479,-2.732348,-400.000000,-400.000000,-400.000000,-400.000000,-400.000000,-400.000000,6
36113203,-0.952196,-3.216457,-2.264261,2.084327,0.656033,-2.740359,-400.000000,-400.000000,-400.000000,-400.000000,-400.000000,-400.000000,6
36115199,-0.952291,-3.235579,-2.283287,2.093935,0.665498,-2.759433,-400.000000,-400.000000,-400.000000,-400.000000,-400.000000,-400.000000,6
36117196,-0.915956,-3.258419,-2.342463,2.087188,0.713253,-2.800441,-400.000000,-400.000000,-400.000000,-400.000000,-400.000000,-400.000000,6
36119192,-0.870752,-3.264952,-2.394199,2.067852,0.761724,-2.829576,-400.000000,-400.000000,-400.000000,-400.000000,-400.000000,-400.000000,6
36121189,-0.817919,-3.253317,-2.435398,2.035618,0.808740,-2.844357,-400.000000,-400.000000,-400.000000,-400.000000,-400.000000,-400.000000,6
36123186,-0.801849,-3.269243,-2.467394,2.035546,0.832772,-2.868319,-400.000000,-400.000000,-400.000000,-400.000000,-400.000000,-400.000000,6
36125182,-0.801516,-3.264999,-2.463484,2.033257,0.830984,-2.864242,-400.000000,-400.000000,-400.000000,-400.000000,-400.000000,-400.000000,6
36127179,-0.820065,-3.264046,-2.443981,2.042055,0.811958,-2.854013,-400.000000,-400.000000,-400.000000,-400.000000,-400.000000,-400.000000,6
36129176,-0.875807,-3.282833,-2.407026,2.079320,0.765610,-2.844930,-400.000000,-400.000000,-400.000000,-400.000000,-400.000000,-400.000000,6
36131173,-0.941992,-3.315496,-2.373505,2.128744,0.715756,-2.844501,-400.000000,-400.000000,-400.000000,-400.000000,-400.000000,-400.000000,6
36133169,-1.000118,-3.357124,-2.357006,2.178621,0.678444,-2.857065,-400.000000,-400.000000,-400.000000,-400.000000,-400.000000,-400.000000,6
36135166,-1.036835,-3.386688,-2.349854,2.211761,0.656509,-2.868271,-400.000000,-400.000000,-400.000000,-400.000000,-400.000000,-400.000000,6
36137162,-1.039219,-3.425932,-2.386713,2.232575,0.673747,-2.906322,-400.000000,-400.000000,-400.000000,-400.000000,-400.000000,-400.000000,6
36139159,-1.018238,-3.469658,-2.451420,2.243948,0.716591,-2.960539,-400.000000,-400.000000,-400.000000,-400.000000,-400.000000,-400.000000,6
36141156,-1.028299,-3.514099,-2.485800,2.271199,0.728750,-2.999949,-400.000000,-400.000000,-400.000000,-400.000000,-400.000000,-400.000000,6
36143152,-1.006413,-3.517675,-2.511263,2.262044,0.752425,-3.014469,-400.000000,-400.000000,-400.000000,-400.000000,-400.000000,-400.000000,6
36145149,-0.975704,-3.501272,-2.525568,2.238488,0.774932,-3.013420,-400.000000,-400.000000,-400.000000,-400.000000,-400.000000,-400.000000,6
36147146,-1.017857,-3.509521,-2.491665,2.263689,0.736904,-3.000593,-400.000000,-400.000000,-400.000000,-400.000000,-400.000000,-400.000000,6
36149143,-1.092196,-3.535461,-2.443266,2.313828,0.675535,-2.989364,-400.000000,-400.000000,-400.000000,-400.000000,-400.000000,-400.000000,6
36151140,-1.148033,-3.555059,-2.407026,2.351546,0.629497,-2.981043,-400.000000,-400.000000,-400.000000,-400.000000,-400.000000,-400.000000,6
36153136,-1.171541,-3.553963,-2.382421,2.362752,0.605440,-2.968192,-400.000000,-400.000000,-400.000000,-400.000000,-400.000000,-400.000000,6
36155133,-1.180124,-3.567982,-2.387857,2.374053,0.603867,-2.977920,-400.000000,-400.000000,-400.000000,-400.000000,-400.000000,-400.000000,6
36157130,-1.188326,-3.609991,-2.421665,2.399158,0.616670,-3.015828,-400.000000,-400.000000,-400.000000,-400.000000,-400.000000,-400.000000,6
36159126,-1.158428,-3.646946,-2.488518,2.402687,0.665045,-3.067732,-400.000000,-400.000000,-400.000000,-400.000000,-400.000000,-400.000000,6
36161123,-1.114130,-3.648233,-2.534103,2.381182,0.709987,-3.091168,-400.000000,-400.000000,-400.000000,-400.000000,-400.000000,-400.000000,6
36163120,-1.090145,-3.654957,-2.564812,2.372551,0.737333,-3.109884,-400.000000,-400.000000,-400.000000,-400.000000,-400.000000,-400.000000,6
36165117,-1.126862,-3.656149,-2.529287,2.391505,0.701213,-3.092718,-400.000000,-400.000000,-400.000000,-400.000000,-400.000000,-400.000000,6
36167114,-1.149368,-3.656387,-2.507019,2.402878,0.678825,-3.081703,-400.000000,-400.000000,-400.000000,-400.000000,-400.000000,-400.000000,6
36169110,-1.189566,-3.655386,-2.465820,2.422476,0.638127,-3.060603,-400.000000,-400.000000,-400.000000,-400.000000,-400.000000,-400.000000,6
36171110,-1.228189,-3.656721,-2.428532,2.442455,0.600171,-3.042626,-400.000000,-400.000000,-400.000000,-400.000000,-400.000000,-400.000000,6
36173104,-1.258373,-3.661060,-2.402687,2.459717,0.572157,-3.031874,-400.000000,-400.000000,-400.000000,-400.000000,-400.000000,-400.000000,6
36175100,-1.277018,-3.666735,-2.389717,2.471876,0.556350,-3.028226,-400.000000,-400.000000,-400.000000,-400.000000,-400.000000,-400.000000,6
36177097,-1.247072,-3.669071,-2.421999,2.458072,0.587463,-3.045535,-400.000000,-400.000000,-400.000000,-400.000000,-400.000000,-400.000000,6
36179094,-1.190758,-3.667212,-2.476454,2.428985,0.642848,-3.071833,-400.000000,-400.000000,-400.000000,-400.000000,-400.000000,-400.000000,6
36181091,-1.158428,-3.665829,-2.507401,2.412128,0.674486,-3.086615,-400.000000,-400.000000,-400.000000,-400.000000,-400.000000,-400.000000,6
36183087,-1.161242,-3.683615,-2.522373,2.422428,0.680566,-3.102994,-400.000000,-400.000000,-400.000000,-400.000000,-400.000000,-400.000000,6
36185084,-1.195955,-3.696299,-2.500343,2.446127,0.652194,-3.098321,-400.000000,-400.000000,-400.000000,-400.000000,-400.000000,-400.000000,6
36187081,-1.227713,-3.677177,-2.449465,2.452445,0.610876,-3.063321,-400.000000,-400.000000,-400.000000,-400.000000,-400.000000,-400.000000,6
36189077,-1.271296,-3.647423,-2.376127,2.459359,0.552416,-3.011775,-400.000000,-400.000000,-400.000000,-400.000000,-400.000000,-400.000000,6
36191074,-1.316833,-3.631878,-2.315044,2.474356,0.499105,-2.973461,-400.000000,-400.000000,-400.000000,-400.000000,-400.000000,-400.000000,6
36193071,-1.346779,-3.600073,-2.253294,2.473426,0.453258,-2.926683,-400.000000,-400.000000,-400.000000,-400.000000,-400.000000,-400.000000,6
36195067,-1.333427,-3.547525,-2.214098,2.440476,0.440335,-2.880812,-400.000000,-400.000000,-400.000000,-400.000000,-400.000000,-400.000000,6
36197064,-1.289177,-3.515768,-2.226591,2.402472,0.468707,-2.871180,-400.000000,-400.000000,-400.000000,-400.000000,-400.000000,-400.000000,6
36199061,-1.221704,-3.483009,-2.261305,2.352357,0.519800,-2.872157,-400.000000,-400.000000,-400.000000,-400.000000,-400.000000,-400.000000,6
36201057,-1.184797,-3.442669,-2.257872,2.313733,0.536537,-2.850270,-400.000000,-400.000000,-400.000000,-400.000000,-400.000000,-400.000000,6
36203054,-1.145411,-3.362846,-2.217436,2.254128,0.536013,-2.790141,-400.000000,-400.000000,-400.000000,-400.000000,-400.000000,-400.000000,6
36205051,-1.100588,-3.242111,-2.141523,2.171350,0.520468,-2.691817,-400.000000,-400.000000,-400.000000,-400.000000,-400.000000,-400.000000,6
36207047,-1.076221,-3.124666,-2.048445,2.100444,0.486112,-2.586555,-400.000000,-400.000000,-400.000000,-400.000000,-400.000000,-400.000000,6
36209044,-1.061630,-3.025770,-1.964140,2.043700,0.451255,-2.494955,-400.000000,-400.000000,-400.000000,-400.000000,-400.000000,-400.000000,6
36211041,-1.021099,-2.932978,-1.911879,1.977038,0.445390,-2.422428,-400.000000,-400.000000,-400.000000,-400.000000,-400.000000,-400.000000,6
36213037,-0.969982,-2.854347,-1.884365,1.912165,0.457191,-2.369356,-400.000000,-400.000000,-400.000000,-400.000000,-400.000000,-400.000000,6
36215035,-0.915861,-2.772617,-1.856756,1.844239,0.470448,-2.314687,-400.000000,-400.000000,-400.000000,-400.000000,-400.000000,-400.000000,6
36217031,-0.835371,-2.683592,-1.848221,1.759481,0.506425,-2.265906,-400.000000,-400.000000,-400.000000,-400.000000,-400.000000,-400.000000,6
36219027,-0.741100,-2.626467,-1.885366,1.683784,0.572133,-2.255917,-400.000000,-400.000000,-400.000000,-400.000000,-400.000000,-400.000000,6
36221024,-0.683689,-2.611876,-1.928186,1.647782,0.622249,-2.270031,-400.000000,-400.000000,-400.000000,-400.000000,-400.000000,-400.000000,6
36223021,-0.642538,-2.672863,-2.030325,1.657701,0.693893,-2.351594,-400.000000,-400.000000,-400.000000,-400.000000,-400.000000,-400.000000,6
36225017,-0.615025,-2.836990,-2.221966,1.726007,0.803471,-2.529478,-400.000000,-400.000000,-400.000000,-400.000000,-400.000000,-400.000000,6
36227014,-0.648546,-3.063393,-2.414846,1.855969,0.883150,-2.739120,-400.000000,-400.000000,-400.000000,-400.000000,-400.000000,-400.000000,6
36229010,-0.722694,-3.322363,-2.599669,2.022529,0.938487,-2.961016,-400.000000,-400.000000,-400.000000,-400.000000,-400.000000,-400.000000,6
36231007,-0.766373,-3.654671,-2.888298,2.210522,1.060963,-3.271484,-400.000000,-400.000000,-400.000000,-400.000000,-400.000000,-400.000000,6
36233004,-0.813627,-4.080105,-3.266478,2.446866,1.226425,-3.673291,-400.000000,-400.000000,-400.000000,-400.000000,-400.000000,-400.000000,6
36235000,-0.898504,-4.467297,-3.568792,2.682900,1.335144,-4.018044,-400.000000,-400.000000,-400.000000,-400.000000,-400.000000,-400.000000,6
36236997,-0.985384,-4.672146,-3.686762,2.828765,1.350689,-4.179454,-400.000000,-400.000000,-400.000000,-400.000000,-400.000000,-400.000000,6
36238994,-1.014709,-4.738140,-3.723431,2.876425,1.354361,-4.230785,-400.000000,-400.000000,-400.000000,-400.000000,-400.000000,-400.000000,6
36240990,-1.038837,-4.692698,-3.653860,2.865767,1.307511,-4.173279,-400.000000,-400.000000,-400.000000,-400.000000,-400.000000,-400.000000,6
36242987,-1.071262,-4.593992,-3.522730,2.832627,1.225734,-4.058361,-400.000000,-400.000000,-400.000000,-400.000000,-400.000000,-400.000000,6
36244984,-1.085377,-4.437733,-3.352356,2.761555,1.133490,-3.895044,-400.000000,-400.000000,-400.000000,-400.000000,-400.000000,-400.000000,6
36246980,-1.114130,-4.277086,-3.162956,2.695608,1.024413,-3.720021,-400.000000,-400.000000,-400.000000,-400.000000,-400.000000,-400.000000,6
36248977,-1.187658,-4.161358,-2.973700,2.674508,0.893021,-3.567529,-400.000000,-400.000000,-400.000000,-400.000000,-400.000000,-400.000000,6
36250973,-1.235485,-4.061747,-2.826262,2.648616,0.795388,-3.444004,-400.000000,-400.000000,-400.000000,-400.000000,-400.000000,-400.000000,6
36252970,-1.275778,-3.981495,-2.705717,2.628636,0.714970,-3.343606,-400.000000,-400.000000,-400.000000,-400.000000,-400.000000,-400.000000,6
36254967,-1.272297,-3.926373,-2.654076,2.599335,0.690889,-3.290224,-400.000000,-400.000000,-400.000000,-400.000000,-400.000000,-400.000000,6
36256964,-1.240110,-3.905773,-2.665663,2.572942,0.712776,-3.285718,-400.000000,-400.000000,-400.000000,-400.000000,-400.000000,-400.000000,6
36258960,-1.221514,-3.877306,-2.655792,2.549410,0.717139,-3.266549,-400.000000,-400.000000,-400.000000,-400.000000,-400.000000,-400.000000,6
36260957,-1.232529,-3.836966,-2.604437,2.534747,0.685954,-3.220701,-400.000000,-400.000000,-400.000000,-400.000000,-400.000000,-400.000000,6
36262954,-1.224947,-3.823662,-2.598715,2.524304,0.686884,-3.211188,-400.000000,-400.000000,-400.000000,-400.000000,-400.000000,-400.000000,6
36264950,-1.219749,-3.817749,-2.598000,2.518749,0.689125,-3.207874,-400.000000,-400.000000,-400.000000,-400.000000,-400.000000,-400.000000,6
36266947,-1.260281,-3.782368,-2.522087,2.521324,0.630903,-3.152227,-400.000000,-400.000000,-400.000000,-400.000000,-400.000000,-400.000000,6
36268944,-1.308632,-3.760862,-2.452230,2.534747,0.571799,-3.106546,-400.000000,-400.000000,-400.000000,-400.000000,-400.000000,-400.000000,6
36270943,-1.337481,-3.747177,-2.409697,2.542329,0.536108,-3.078437,-400.000000,-400.000000,-400.000000,-400.000000,-400.000000,-400.000000,6
36272938,-1.361609,-3.729677,-2.368069,2.545643,0.503230,-3.048873,-400.000000,-400.000000,-400.000000,-400.000000,-400.000000,-400.000000,6
36274934,-1.360846,-3.718615,-2.357769,2.539730,0.498462,-3.038192,-400.000000,-400.000000,-400.000000,-400.000000,-400.000000,-400.000000,6
36276930,-1.345396,-3.719807,-2.374411,2.532601,0.514507,-3.047109,-400.000000,-400.000000,-400.000000,-400.000000,-400.000000,-400.000000,6
36278927,-1.310205,-3.718376,-2.408171,2.514291,0.548983,-3.063273,-400.000000,-400.000000,-400.000000,-400.000000,-400.000000,-400.000000,6
36280924,-1.281929,-3.721523,-2.439594,2.501726,0.578833,-3.080559,-400.000000,-400.000000,-400.000000,-400.000000,-400.000000,-400.000000,6
36282920,-1.258087,-3.723192,-2.465105,2.490640,0.603509,-3.094149,-400.000000,-400.000000,-400.000000,-400.000000,-400.000000,-400.000000,6
36284917,-1.265097,-3.724241,-2.459145,2.494669,0.597024,-3.091693,-400.000000,-400.000000,-400.000000,-400.000000,-400.000000,-400.000000,6
36286914,-1.287270,-3.716421,-2.429152,2.501845,0.570941,-3.072786,-400.000000,-400.000000,-400.000000,-400.000000,-400.000000,-400.000000,6
36288910,-1.310921,-3.691053,-2.380133,2.500987,0.534606,-3.035593,-400.000000,-400.000000,-400.000000,-400.000000,-400.000000,-400.000000,6
36290907,-1.348543,-3.685951,-2.337408,2.517247,0.494432,-3.011680,-400.000000,-400.000000,-400.000000,-400.000000,-400.000000,-400.000000,6
36292903,-1.373863,-3.695679,-2.321815,2.534771,0.473976,-3.008747,-400.000000,-400.000000,-400.000000,-400.000000,-400.000000,-400.000000,6
36294900,-1.372337,-3.678894,-2.306557,2.525616,0.467110,-2.992725,-400.000000,-400.000000,-400.000000,-400.000000,-400.000000,-400.000000,6
36296897,-1.348782,-3.673887,-2.325106,2.511334,0.488162,-2.999496,-400.000000,-400.000000,-400.000000,-400.000000,-400.000000,-400.000000,6
36298893,-1.309633,-3.685045,-2.375412,2.497339,0.532889,-3.030229,-400.000000,-400.000000,-400.000000,-400.000000,-400.000000,-400.000000,6
36300890,-1.281691,-3.690481,-2.408791,2.486086,0.563550,-3.049636,-400.000000,-400.000000,-400.000000,-400.000000,-400.000000,-400.000000,6
36302886,-1.260138,-3.692436,-2.432299,2.476287,0.586081,-3.062367,-400.000000,-400.000000,-400.000000,-400.000000,-400.000000,-400.000000,6
36304883,-1.254272,-3.686857,-2.432585,2.470565,0.589156,-3.059721,-400.000000,-400.000000,-400.000000,-400.000000,-400.000000,-400.000000,6
36306880,-1.277876,-3.675795,-2.397919,2.476835,0.560021,-3.036857,-400.000000,-400.000000,-400.000000,-400.000000,-400.000000,-400.000000,6
36308876,-1.322365,-3.664589,-2.342224,2.493477,0.509930,-3.003407,-400.000000,-400.000000,-400.000000,-400.000000,-400.000000,-400.000000,6
36310873,-1.349068,-3.651571,-2.302504,2.500319,0.476718,-2.977037,-400.000000,-400.000000,-400.000000,-400.000000,-400.000000,-400.000000,6
36312869,-1.357031,-3.629971,-2.272940,2.493501,0.457954,-2.951455,-400.000000,-400.000000,-400.000000,-400.000000,-400.000000,-400.000000,6
36314866,-1.352501,-3.621769,-2.269268,2.487135,0.458384,-2.945518,-400.000000,-400.000000,-400.000000,-400.000000,-400.000000,-400.000000,6
36316863,-1.329708,-3.628778,-2.299070,2.479243,0.484681,-2.963924,-400.000000,-400.000000,-400.000000,-400.000000,-400.000000,-400.000000,6
36318860,-1.283598,-3.629398,-2.345800,2.456498,0.531101,-2.987599,-400.000000,-400.000000,-400.000000,-400.000000,-400.000000,-400.000000,6
36320856,-1.244450,-3.624773,-2.380323,2.434611,0.567937,-3.002548,-400.000000,-400.000000,-400.000000,-400.000000,-400.000000,-400.000000,6
36322853,-1.226330,-3.627872,-2.401543,2.427101,0.587606,-3.014708,-400.000000,-400.000000,-400.000000,-400.000000,-400.000000,-400.000000,6
36324849,-1.222897,-3.632689,-2.409792,2.427793,0.593448,-3.021240,-400.000000,-400.000000,-400.000000,-400.000000,-400.000000,-400.000000,6
36326846,-1.249218,-3.639269,-2.390051,2.444243,0.570416,-3.014660,-400.000000,-400.000000,-400.000000,-400.000000,-400.000000,-400.000000,6
36328843,-1.282549,-3.627777,-2.345228,2.455163,0.531340,-2.986503,-400.000000,-400.000000,-400.000000,-400.000000,-400.000000,-400.000000,6
36330839,-1.310778,-3.613091,-2.302313,2.461934,0.495768,-2.957702,-400.000000,-400.000000,-400.000000,-400.000000,-400.000000,-400.000000,6
36332836,-1.327467,-3.609657,-2.282190,2.468562,0.477362,-2.945924,-400.000000,-400.000000,-400.000000,-400.000000,-400.000000,-400.000000,6
36334833,-1.336288,-3.607130,-2.270842,2.471709,0.467277,-2.938986,-400.000000,-400.000000,-400.000000,-400.000000,-400.000000,-400.000000,6
36336829,-1.320457,-3.608513,-2.288055,2.464485,0.483799,-2.948284,-400.000000,-400.000000,-400.000000,-400.000000,-400.000000,-400.000000,6
36338826,-1.269579,-3.596735,-2.327156,2.433157,0.528789,-2.961946,-400.000000,-400.000000,-400.000000,-400.000000,-400.000000,-400.000000,6
36340822,-1.232195,-3.592205,-2.360010,2.412200,0.563908,-2.976108,-400.000000,-400.000000,-400.000000,-400.000000,-400.000000,-400.000000,6
36342819,-1.203012,-3.598261,-2.395248,2.400637,0.596118,-2.996755,-400.000000,-400.000000,-400.000000,-400.000000,-400.000000,-400.000000,6
36344816,-1.199198,-3.599024,-2.399826,2.399111,0.600314,-2.999425,-400.000000,-400.000000,-400.000000,-400.000000,-400.000000,-400.000000,6
36346812,-1.224947,-3.593493,-2.368546,2.409220,0.571799,-2.981019,-400.000000,-400.000000,-400.000000,-400.000000,-400.000000,-400.000000,6
36348809,-1.267672,-3.591824,-2.324152,2.429748,0.528240,-2.957988,-400.000000,-400.000000,-400.000000,-400.000000,-400.000000,-400.000000,6
36350806,-1.306152,-3.583288,-2.277136,2.444720,0.485492,-2.930212,-400.000000,-400.000000,-400.000000,-400.000000,-400.000000,-400.000000,6
36352802,-1.322603,-3.567076,-2.244473,2.444839,0.460935,-2.905774,-400.000000,-400.000000,-400.000000,-400.000000,-400.000000,-400.000000,6
36354799,-1.314878,-3.554296,-2.239418,2.434587,0.462270,-2.896857,-400.000000,-400.000000,-400.000000,-400.000000,-400.000000,-400.000000,6
36356796,-1.281691,-3.552103,-2.270412,2.416897,0.494361,-2.911258,-400.000000,-400.000000,-400.000000,-400.000000,-400.000000,-400.000000,6
36358792,-1.238537,-3.559160,-2.320623,2.398849,0.541043,-2.939892,-400.000000,-400.000000,-400.000000,-400.000000,-400.000000,-400.000000,6
36360789,-1.216078,-3.557539,-2.341461,2.386808,0.562692,-2.949500,-400.000000,-400.000000,-400.000000,-400.000000,-400.000000,-400.000000,6
36362786,-1.196337,-3.556204,-2.359867,2.376270,0.581765,-2.958035,-400.000000,-400.000000,-400.000000,-400.000000,-400.000000,-400.000000,6
36364782,-1.192904,-3.559208,-2.366304,2.376056,0.586700,-2.962756,-400.000000,-400.000000,-400.000000,-400.000000,-400.000000,-400.000000,6
36366779,-1.192284,-3.565502,-2.373219,2.378893,0.590467,-2.969360,-400.000000,-400.000000,-400.000000,-400.000000,-400.000000,-400.000000,6
36368776,-1.244879,-3.546047,-2.301168,2.395463,0.528145,-2.923608,-400.000000,-400.000000,-400.000000,-400.000000,-400.000000,-400.000000,6
36370775,-1.290512,-3.538561,-2.248049,2.414536,0.478768,-2.893305,-400.000000,-400.000000,-400.000000,-400.000000,-400.000000,-400.000000,6
36372770,-1.294327,-3.524971,-2.230644,2.409649,0.468159,-2.877808,-400.000000,-400.000000,-400.000000,-400.000000,-400.000000,-400.000000,6
36374766,-1.286411,-3.511524,-2.225113,2.398968,0.469351,-2.868319,-400.000000,-400.000000,-400.000000,-400.000000,-400.000000,-400.000000,6
36376762,-1.266766,-3.512383,-2.245617,2.389574,0.489426,-2.879000,-400.000000,-400.000000,-400.000000,-400.000000,-400.000000,-400.000000,6
36378759,-1.223135,-3.517771,-2.294636,2.370453,0.535750,-2.906203,-400.000000,-400.000000,-400.000000,-400.000000,-400.000000,-400.000000,6
36380756,-1.179409,-3.513050,-2.333641,2.346230,0.577116,-2.923346,-400.000000,-400.000000,-400.000000,-400.000000,-400.000000,-400.000000,6
36382752,-1.154232,-3.520584,-2.366352,2.337408,0.606060,-2.943468,-400.000000,-400.000000,-400.000000,-400.000000,-400.000000,-400.000000,6
36384749,-1.140261,-3.525162,-2.384901,2.332711,0.622320,-2.955031,-400.000000,-400.000000,-400.000000,-400.000000,-400.000000,-400.000000,6
36386746,-1.155043,-3.526735,-2.371693,2.340889,0.608325,-2.949214,-400.000000,-400.000000,-400.000000,-400.000000,-400.000000,-400.000000,6
36388742,-1.190281,-3.528214,-2.337933,2.359247,0.573826,-2.933073,-400.000000,-400.000000,-400.000000,-400.000000,-400.000000,-400.000000,6
36390739,-1.226139,-3.534031,-2.307892,2.380085,0.540876,-2.920961,-400.000000,-400.000000,-400.000000,-400.000000,-400.000000,-400.000000,6
36392735,-1.250362,-3.524971,-2.274609,2.387667,0.512123,-2.899790,-400.000000,-400.000000,-400.000000,-400.000000,-400.000000,-400.000000,6
36394732,-1.253891,-3.512573,-2.258682,2.383232,0.502396,-2.885628,-400.000000,-400.000000,-400.000000,-400.000000,-400.000000,-400.000000,6
36396729,-1.221848,-3.508806,-2.286959,2.365327,0.532556,-2.897882,-400.000000,-400.000000,-400.000000,-400.000000,-400.000000,-400.000000,6
36398725,-1.150703,-3.486490,-2.335787,2.318597,0.592542,-2.911139,-400.000000,-400.000000,-400.000000,-400.000000,-400.000000,-400.000000,6
36400722,-1.087379,-3.465128,-2.377748,2.276254,0.645185,-2.921438,-400.000000,-400.000000,-400.000000,-400.000000,-400.000000,-400.000000,6
36402718,-1.066637,-3.466797,-2.400160,2.266717,0.666761,-2.933478,-400.000000,-400.000000,-400.000000,-400.000000,-400.000000,-400.000000,6
36404715,-1.068783,-3.485298,-2.416515,2.277040,0.673866,-2.950907,-400.000000,-400.000000,-400.000000,-400.000000,-400.000000,-400.000000,6
36406712,-1.087332,-3.505278,-2.417946,2.296305,0.665307,-2.961612,-400.000000,-400.000000,-400.000000,-400.000000,-400.000000,-400.000000,6
36408708,-1.133299,-3.502846,-2.369547,2.318072,0.618124,-2.936196,-400.000000,-400.000000,-400.000000,-400.000000,-400.000000,-400.000000,6
36410705,-1.197100,-3.521585,-2.324486,2.359343,0.563693,-2.923036,-400.000000,-400.000000,-400.000000,-400.000000,-400.000000,-400.000000,6
36412702,-1.236773,-3.547478,-2.310705,2.392125,0.536966,-2.929091,-400.000000,-400.000000,-400.000000,-400.000000,-400.000000,-400.000000,6
36414698,-1.253843,-3.547764,-2.293921,2.400804,0.520039,-2.920842,-400.000000,-400.000000,-400.000000,-400.000000,-400.000000,-400.000000,6
36416695,-1.227283,-3.549337,-2.322054,2.388310,0.547385,-2.935696,-400.000000,-400.000000,-400.000000,-400.000000,-400.000000,-400.000000,6
36418691,-1.178408,-3.553247,-2.374840,2.365828,0.598216,-2.964044,-400.000000,-400.000000,-400.000000,-400.000000,-400.000000,-400.000000,6
36420688,-1.140165,-3.556061,-2.415895,2.348113,0.637865,-2.985978,-400.000000,-400.000000,-400.000000,-400.000000,-400.000000,-400.000000,6
36422685,-1.125288,-3.567314,-2.442026,2.346301,0.658369,-3.004670,-400.000000,-400.000000,-400.000000,-400.000000,-400.000000,-400.000000,6
36424681,-1.133633,-3.586769,-2.453136,2.360201,0.659752,-3.019953,-400.000000,-400.000000,-400.000000,-400.000000,-400.000000,-400.000000,6
36426678,-1.164865,-3.603840,-2.438974,2.384353,0.637054,-3.021407,-400.000000,-400.000000,-400.000000,-400.000000,-400.000000,-400.000000,6
36428675,-1.216221,-3.610849,-2.394629,2.413535,0.589204,-3.002739,-400.000000,-400.000000,-400.000000,-400.000000,-400.000000,-400.000000,6
36430671,-1.253319,-3.605604,-2.352285,2.429461,0.549483,-2.978945,-400.000000,-400.000000,-400.000000,-400.000000,-400.000000,-400.000000,6
36432668,-1.265335,-3.597450,-2.332115,2.431393,0.533390,-2.964783,-400.000000,-400.000000,-400.000000,-400.000000,-400.000000,-400.000000,6
36434665,-1.272774,-3.587437,-2.314663,2.430105,0.520945,-2.951050,-400.000000,-400.000000,-400.000000,-400.000000,-400.000000,-400.000000,6
36436661,-1.256990,-3.577948,-2.320957,2.417469,0.531983,-2.949452,-400.000000,-400.000000,-400.000000,-400.000000,-400.000000,-400.000000,6
36438658,-1.209927,-3.563976,-2.354050,2.386951,0.572062,-2.959013,-400.000000,-400.000000,-400.000000,-400.000000,-400.000000,-400.000000,6
36440654,-1.178026,-3.569508,-2.391481,2.373767,0.606728,-2.980494,-400.000000,-400.000000,-400.000000,-400.000000,-400.000000,-400.000000,6
36442651,-1.171160,-3.583956,-2.412796,2.377558,0.620818,-2.998376,-400.000000,-400.000000,-400.000000,-400.000000,-400.000000,-400.000000,6
36444648,-1.181412,-3.597403,-2.415991,2.389407,0.617290,-3.006697,-400.000000,-400.000000,-400.000000,-400.000000,-400.000000,-400.000000,6
36446644,-1.203823,-3.601980,-2.398157,2.402902,0.597167,-3.000069,-400.000000,-400.000000,-400.000000,-400.000000,-400.000000,-400.000000,6
36448641,-1.237297,-3.601408,-2.364111,2.419353,0.563407,-2.982759,-400.000000,-400.000000,-400.000000,-400.000000,-400.000000,-400.000000,6
36450638,-1.273680,-3.587103,-2.313423,2.430391,0.519872,-2.950263,-400.000000,-400.000000,-400.000000,-400.000000,-400.000000,-400.000000,6
36452634,-1.289463,-3.570652,-2.281189,2.430058,0.495863,-2.925920,-400.000000,-400.000000,-400.000000,-400.000000,-400.000000,-400.000000,6
36454632,-1.300764,-3.564930,-2.264166,2.432847,0.481701,-2.914548,-400.000000,-400.000000,-400.000000,-400.000000,-400.000000,-400.000000,6
36456628,-1.268721,-3.566027,-2.297306,2.417374,0.514293,-2.931666,-400.000000,-400.000000,-400.000000,-400.000000,-400.000000,-400.000000,6
36458624,-1.230240,-3.563547,-2.333307,2.396894,0.551534,-2.948427,-400.000000,-400.000000,-400.000000,-400.000000,-400.000000,-400.000000,6
36460621,-1.203394,-3.561926,-2.358532,2.382660,0.577569,-2.960229,-400.000000,-400.000000,-400.000000,-400.000000,-400.000000,-400.000000,6
36462618,-1.168776,-3.580523,-2.411747,2.374649,0.621486,-2.996135,-400.000000,-400.000000,-400.000000,-400.000000,-400.000000,-400.000000,6
36464614,-1.161289,-3.583431,-2.422142,2.372360,0.630426,-3.002787,-400.000000,-400.000000,-400.000000,-400.000000,-400.000000,-400.000000,6
36466611,-1.175690,-3.563786,-2.388096,2.369738,0.606203,-2.975941,-400.000000,-400.000000,-400.000000,-400.000000,-400.000000,-400.000000,6
36468609,-1.201439,-3.567076,-2.365637,2.384257,0.582099,-2.966356,-400.000000,-400.000000,-400.000000,-400.000000,-400.000000,-400.000000,6
36470607,-1.244593,-3.580189,-2.335596,2.412391,0.545502,-2.957892,-400.000000,-400.000000,-400.000000,-400.000000,-400.000000,-400.000000,6
36472602,-1.287556,-3.566980,-2.279425,2.427268,0.495934,-2.923203,-400.000000,-400.000000,-400.000000,-400.000000,-400.000000,-400.000000,6
36474598,-1.315689,-3.576803,-2.261114,2.446246,0.472713,-2.918959,-400.000000,-400.000000,-400.000000,-400.000000,-400.000000,-400.000000,6
36476595,-1.289845,-3.581095,-2.291250,2.435470,0.500703,-2.936172,-400.000000,-400.000000,-400.000000,-400.000000,-400.000000,-400.000000,6
36478591,-1.253700,-3.582191,-2.328491,2.417946,0.537395,-2.955341,-400.000000,-400.000000,-400.000000,-400.000000,-400.000000,-400.000000,6
36480588,-1.218033,-3.575182,-2.357149,2.396607,0.569558,-2.966166,-400.000000,-400.000000,-400.000000,-400.000000,-400.000000,-400.000000,6
36482585,-1.193905,-3.576851,-2.382946,2.385378,0.594521,-2.979898,-400.000000,-400.000000,-400.000000,-400.000000,-400.000000,-400.000000,6
36484581,-1.202726,-3.583717,-2.380991,2.393222,0.589132,-2.982354,-400.000000,-400.000000,-400.000000,-400.000000,-400.000000,-400.000000,6
36486578,-1.229858,-3.584051,-2.354193,2.406955,0.562167,-2.969122,-400.000000,-400.000000,-400.000000,-400.000000,-400.000000,-400.000000,6
36488575,-1.277304,-3.586245,-2.308941,2.431774,0.515819,-2.947593,-400.000000,-400.000000,-400.000000,-400.000000,-400.000000,-400.000000,6
36490571,-1.322985,-3.600883,-2.277899,2.461934,0.477457,-2.939391,-400.000000,-400.000000,-400.000000,-400.000000,-400.000000,-400.000000,6
36492568,-1.338530,-3.605604,-2.267075,2.472067,0.464272,-2.936339,-400.000000,-400.000000,-400.000000,-400.000000,-400.000000,-400.000000,6
36494565,-1.354504,-3.604317,-2.249813,2.479410,0.447655,-2.927065,-400.000000,-400.000000,-400.000000,-400.000000,-400.000000,-400.000000,6
36496561,-1.305676,-3.606415,-2.300739,2.456045,0.497532,-2.953577,-400.000000,-400.000000,-400.000000,-400.000000,-400.000000,-400.000000,6
36498558,-1.274586,-3.621197,-2.346611,2.447891,0.536013,-2.983904,-400.000000,-400.000000,-400.000000,-400.000000,-400.000000,-400.000000,6
36500555,-1.261854,-3.626871,-2.365017,2.444363,0.551581,-2.995944,-400.000000,-400.000000,-400.000000,-400.000000,-400.000000,-400.000000,6
36502551,-1.233149,-3.621197,-2.388048,2.427173,0.577450,-3.004622,-400.000000,-400.000000,-400.000000,-400.000000,-400.000000,-400.000000,6
36504548,-1.213026,-3.620720,-2.407694,2.416873,0.597334,-3.014207,-400.000000,-400.000000,-400.000000,-400.000000,-400.000000,-400.000000,6
36506545,-1.230431,-3.621387,-2.390957,2.425909,0.580263,-3.006172,-400.000000,-400.000000,-400.000000,-400.000000,-400.000000,-400.000000,6
36508541,-1.275253,-3.625345,-2.350092,2.450299,0.537419,-2.987719,-400.000000,-400.000000,-400.000000,-400.000000,-400.000000,-400.000000,6
36510539,-1.283264,-3.618050,-2.334785,2.450657,0.525761,-2.976418,-400.000000,-400.000000,-400.000000,-400.000000,-400.000000,-400.000000,6
36512535,-1.289988,-3.600359,-2.310371,2.445173,0.510192,-2.955365,-400.000000,-400.000000,-400.000000,-400.000000,-400.000000,-400.000000,6
36514531,-1.300526,-3.597879,-2.297354,2.449203,0.498414,-2.947617,-400.000000,-400.000000,-400.000000,-400.000000,-400.000000,-400.000000,6
36516528,-1.289749,-3.614950,-2.325201,2.452350,0.517726,-2.970076,-400.000000,-400.000000,-400.000000,-400.000000,-400.000000,-400.000000,6
36518525,-1.248646,-3.625059,-2.376413,2.436852,0.563884,-3.000736,-400.000000,-400.000000,-400.000000,-400.000000,-400.000000,-400.000000,6
36520521,-1.205015,-3.636932,-2.431917,2.420974,0.613451,-3.034425,-400.000000,-400.000000,-400.000000,-400.000000,-400.000000,-400.000000,6
36522518,-1.196623,-3.652573,-2.455950,2.424598,0.629663,-3.054261,-400.000000,-400.000000,-400.000000,-400.000000,-400.000000,-400.000000,6
36524514,-1.209545,-3.655338,-2.445793,2.432442,0.618124,-3.050566,-400.000000,-400.000000,-400.000000,-400.000000,-400.000000,-400.000000,6
36526511,-1.220083,-3.647614,-2.427530,2.433848,0.603724,-3.037572,-400.000000,-400.000000,-400.000000,-400.000000,-400.000000,-400.000000,6
36528508,-1.246977,-3.629637,-2.382660,2.438307,0.567842,-3.006148,-400.000000,-400.000000,-400.000000,-400.000000,-400.000000,-400.000000,6
36530504,-1.252556,-3.598738,-2.346182,2.425647,0.546813,-2.972460,-400.000000,-400.000000,-400.000000,-400.000000,-400.000000,-400.000000,6
36532501,-1.261854,-3.576136,-2.314281,2.418995,0.526214,-2.945209,-400.000000,-400.000000,-400.000000,-400.000000,-400.000000,-400.000000,6
36534498,-1.288939,-3.570366,-2.281427,2.429652,0.496244,-2.925897,-400.000000,-400.000000,-400.000000,-400.000000,-400.000000,-400.000000,6
36536494,-1.276350,-3.569460,-2.293110,2.422905,0.508380,-2.931285,-400.000000,-400.000000,-400.000000,-400.000000,-400.000000,-400.000000,6
36538491,-1.218605,-3.562307,-2.343702,2.390456,0.562549,-2.953005,-400.000000,-400.000000,-400.000000,-400.000000,-400.000000,-400.000000,6
36540488,-1.171827,-3.567171,-2.395344,2.369499,0.611758,-2.981257,-400.000000,-400.000000,-400.000000,-400.000000,-400.000000,-400.000000,6
36542484,-1.168203,-3.587961,-2.419758,2.378082,0.625777,-3.003860,-400.000000,-400.000000,-400.000000,-400.000000,-400.000000,-400.000000,6
36544481,-1.158571,-3.608084,-2.449512,2.383327,0.645471,-3.028798,-400.000000,-400.000000,-400.000000,-400.000000,-400.000000,-400.000000,6
36546478,-1.196194,-3.613186,-2.416992,2.404690,0.610399,-3.015089,-400.000000,-400.000000,-400.000000,-400.000000,-400.000000,-400.000000,6
36548474,-1.247740,-3.602171,-2.354431,2.424955,0.553346,-2.978301,-400.000000,-400.000000,-400.000000,-400.000000,-400.000000,-400.000000,6
36550472,-1.290178,-3.593588,-2.303410,2.441883,0.506616,-2.948499,-400.000000,-400.000000,-400.000000,-400.000000,-400.000000,-400.000000,6
36552468,-1.313782,-3.573179,-2.259398,2.443480,0.472808,-2.916288,-400.000000,-400.000000,-400.000000,-400.000000,-400.000000,-400.000000,6
36554464,-1.314020,-3.561354,-2.247334,2.437687,0.466657,-2.904344,-400.000000,-400.000000,-400.000000,-400.000000,-400.000000,-400.000000,6
36556461,-1.294565,-3.558445,-2.263880,2.426505,0.484657,-2.911162,-400.000000,-400.000000,-400.000000,-400.000000,-400.000000,-400.000000,6
36558458,-1.266861,-3.553724,-2.286863,2.410293,0.510001,-2.920294,-400.000000,-400.000000,-400.000000,-400.000000,-400.000000,-400.000000,6
36560454,-1.230669,-3.562784,-2.332115,2.396727,0.550723,-2.947450,-400.000000,-400.000000,-400.000000,-400.000000,-400.000000,-400.000000,6
36562451,-1.206779,-3.571129,-2.364349,2.388954,0.578785,-2.967739,-400.000000,-400.000000,-400.000000,-400.000000,-400.000000,-400.000000,6
36564448,-1.168871,-3.563404,-2.394533,2.366138,0.612831,-2.978969,-400.000000,-400.000000,-400.000000,-400.000000,-400.000000,-400.000000,6
36566444,-1.197624,-3.550196,-2.352571,2.373910,0.577474,-2.951384,-400.000000,-400.000000,-400.000000,-400.000000,-400.000000,-400.000000,6
36568441,-1.227188,-3.535700,-2.308512,2.381444,0.540662,-2.922106,-400.000000,-400.000000,-400.000000,-400.000000,-400.000000,-400.000000,6
36570440,-1.257849,-3.540564,-2.282715,2.399206,0.512433,-2.911639,-400.000000,-400.000000,-400.000000,-400.000000,-400.000000,-400.000000,6
36572435,-1.276398,-3.537846,-2.261448,2.407122,0.492525,-2.899647,-400.000000,-400.000000,-400.000000,-400.000000,-400.000000,-400.000000,6
36574431,-1.313162,-3.507996,-2.194834,2.410579,0.440836,-2.851415,-400.000000,-400.000000,-400.000000,-400.000000,-400.000000,-400.000000,6
36576428,-1.300764,-3.523684,-2.222919,2.412224,0.461078,-2.873302,-400.000000,-400.000000,-400.000000,-400.000000,-400.000000,-400.000000,6
36578425,-1.262665,-3.540850,-2.278185,2.401757,0.507760,-2.909517,-400.000000,-400.000000,-400.000000,-400.000000,-400.000000,-400.000000,6
36580421,-1.245451,-3.553581,-2.308130,2.399516,0.531340,-2.930856,-400.000000,-400.000000,-400.000000,-400.000000,-400.000000,-400.000000,6
36582418,-1.273680,-3.580189,-2.306509,2.426934,0.516415,-2.943349,-400.000000,-400.000000,-400.000000,-400.000000,-400.000000,-400.000000,6
36584415,-1.253891,-3.579330,-2.325439,2.416611,0.535774,-2.952385,-400.000000,-400.000000,-400.000000,-400.000000,-400.000000,-400.000000,6
36586411,-1.258087,-3.560448,-2.302361,2.409267,0.522137,-2.931404,-400.000000,-400.000000,-400.000000,-400.000000,-400.000000,-400.000000,6
36588408,-1.285315,-3.551865,-2.266550,2.418590,0.490618,-2.909207,-400.000000,-400.000000,-400.000000,-400.000000,-400.000000,-400.000000,6
36590405,-1.308680,-3.535414,-2.226734,2.422047,0.459027,-2.881074,-400.000000,-400.000000,-400.000000,-400.000000,-400.000000,-400.000000,6
36592401,-1.379681,-3.516769,-2.137089,2.448225,0.378704,-2.826929,-400.000000,-400.000000,-400.000000,-400.000000,-400.000000,-400.000000,6
36594398,-1.442528,-3.503942,-2.061415,2.473235,0.309443,-2.782679,-400.000000,-400.000000,-400.000000,-400.000000,-400.000000,-400.000000,6
36596395,-1.400185,-3.517103,-2.116919,2.458644,0.358367,-2.817011,-400.000000,-400.000000,-400.000000,-400.000000,-400.000000,-400.000000,6
36598391,-1.356936,-3.527975,-2.171040,2.442455,0.407052,-2.849507,-400.000000,-400.000000,-400.000000,-400.000000,-400.000000,-400.000000,6
36600388,-1.325655,-3.529739,-2.204084,2.427697,0.439215,-2.866912,-400.000000,-400.000000,-400.000000,-400.000000,-400.000000,-400.000000,6
36602385,-1.305246,-3.530407,-2.225161,2.417827,0.459957,-2.877784,-400.000000,-400.000000,-400.000000,-400.000000,-400.000000,-400.000000,6
36604382,-1.304674,-3.538322,-2.233648,2.421498,0.464487,-2.885985,-400.000000,-400.000000,-400.000000,-400.000000,-400.000000,-400.000000,6
36606378,-1.313019,-3.544760,-2.231741,2.428889,0.459361,-2.888250,-400.000000,-400.000000,-400.000000,-400.000000,-400.000000,-400.000000,6
36608375,-1.358223,-3.551054,-2.192831,2.454638,0.417304,-2.871943,-400.000000,-400.000000,-400.000000,-400.000000,-400.000000,-400.000000,6
36610372,-1.403761,-3.541279,-2.137518,2.472520,0.366879,-2.839398,-400.000000,-400.000000,-400.000000,-400.000000,-400.000000,-400.000000,6
36612369,-1.415682,-3.529644,-2.113962,2.472663,0.349140,-2.821803,-400.000000,-400.000000,-400.000000,-400.000000,-400.000000,-400.000000,6
36614365,-1.424837,-3.522968,-2.098131,2.473903,0.336647,-2.810550,-400.000000,-400.000000,-400.000000,-400.000000,-400.000000,-400.000000,6
36616362,-1.421261,-3.528786,-2.107525,2.475023,0.343132,-2.818155,-400.000000,-400.000000,-400.000000,-400.000000,-400.000000,-400.000000,6
36618358,-1.374674,-3.533077,-2.158403,2.453876,0.391865,-2.845740,-400.000000,-400.000000,-400.000000,-400.000000,-400.000000,-400.000000,6
36620355,-1.358080,-3.535843,-2.177763,2.446961,0.409842,-2.856803,-400.000000,-400.000000,-400.000000,-400.000000,-400.000000,-400.000000,6
36622352,-1.327991,-3.540087,-2.212095,2.434039,0.442052,-2.876091,-400.000000,-400.000000,-400.000000,-400.000000,-400.000000,-400.000000,6
36624348,-1.304626,-3.545141,-2.240515,2.424884,0.467944,-2.892828,-400.000000,-400.000000,-400.000000,-400.000000,-400.000000,-400.000000,6
36626345,-1.320362,-3.545380,-2.225018,2.432871,0.452328,-2.885199,-400.000000,-400.000000,-400.000000,-400.000000,-400.000000,-400.000000,6
36628342,-1.344919,-3.528929,-2.184010,2.436924,0.419545,-2.856469,-400.000000,-400.000000,-400.000000,-400.000000,-400.000000,-400.000000,6
36630338,-1.366234,-3.511238,-2.145004,2.438736,0.389385,-2.828121,-400.000000,-400.000000,-400.000000,-400.000000,-400.000000,-400.000000,6
36632335,-1.364517,-3.497744,-2.133226,2.431130,0.384355,-2.815485,-400.000000,-400.000000,-400.000000,-400.000000,-400.000000,-400.000000,6
36634332,-1.352882,-3.483963,-2.131081,2.418423,0.389099,-2.807522,-400.000000,-400.000000,-400.000000,-400.000000,-400.000000,-400.000000,6
36636329,-1.338673,-3.485870,-2.147198,2.412271,0.404263,-2.816534,-400.000000,-400.000000,-400.000000,-400.000000,-400.000000,-400.000000,6
36638325,-1.301241,-3.492785,-2.191544,2.397013,0.445151,-2.842164,-400.000000,-400.000000,-400.000000,-400.000000,-400.000000,-400.000000,6
36640322,-1.275349,-3.510666,-2.235317,2.393007,0.479984,-2.872992,-400.000000,-400.000000,-400.000000,-400.000000,-400.000000,-400.000000,6
36642319,-1.271200,-3.536987,-2.265787,2.404094,0.497293,-2.901387,-400.000000,-400.000000,-400.000000,-400.000000,-400.000000,-400.000000,6
36644316,-1.275253,-3.557777,-2.282524,2.416515,0.503635,-2.920151,-400.000000,-400.000000,-400.000000,-400.000000,-400.000000,-400.000000,6
36646312,-1.280022,-3.558922,-2.278900,2.419472,0.499439,-2.918911,-400.000000,-400.000000,-400.000000,-400.000000,-400.000000,-400.000000,6
36648309,-1.313734,-3.548241,-2.234507,2.430987,0.460386,-2.891374,-400.000000,-400.000000,-400.000000,-400.000000,-400.000000,-400.000000,6
36650306,-1.347303,-3.541279,-2.193975,2.444291,0.423336,-2.867627,-400.000000,-400.000000,-400.000000,-400.000000,-400.000000,-400.000000,6
36652302,-1.359987,-3.524113,-2.164125,2.442050,0.402069,-2.844119,-400.000000,-400.000000,-400.000000,-400.000000,-400.000000,-400.000000,6
36654299,-1.379347,-3.518724,-2.139378,2.449036,0.380015,-2.829051,-400.000000,-400.000000,-400.000000,-400.000000,-400.000000,-400.000000,6
36656296,-1.378489,-3.536558,-2.158070,2.457523,0.389791,-2.847314,-400.000000,-400.000000,-400.000000,-400.000000,-400.000000,-400.000000,6
36658292,-1.340199,-3.547382,-2.207184,2.443790,0.433493,-2.877283,-400.000000,-400.000000,-400.000000,-400.000000,-400.000000,-400.000000,6
36660290,-1.311159,-3.558779,-2.247620,2.434969,0.468230,-2.903199,-400.000000,-400.000000,-400.000000,-400.000000,-400.000000,-400.000000,6
36662286,-1.299191,-3.570366,-2.271175,2.434778,0.485992,-2.920771,-400.000000,-400.000000,-400.000000,-400.000000,-400.000000,-400.000000,6
36664282,-1.300383,-3.574324,-2.273941,2.437353,0.486779,-2.924132,-400.000000,-400.000000,-400.000000,-400.000000,-400.000000,-400.000000,6
36666280,-1.295137,-3.571224,-2.276087,2.433181,0.490475,-2.923656,-400.000000,-400.000000,-400.000000,-400.000000,-400.000000,-400.000000,6
36668275,-1.337576,-3.563356,-2.225780,2.450466,0.444102,-2.894568,-400.000000,-400.000000,-400.000000,-400.000000,-400.000000,-400.000000,6
36670273,-1.375389,-3.562069,-2.186680,2.468729,0.405645,-2.874374,-400.000000,-400.000000,-400.000000,-400.000000,-400.000000,-400.000000,6
36672270,-1.387167,-3.556919,-2.169752,2.472043,0.391293,-2.863336,-400.000000,-400.000000,-400.000000,-400.000000,-400.000000,-400.000000,6
36674266,-1.408195,-3.550482,-2.142286,2.479339,0.367045,-2.846384,-400.000000,-400.000000,-400.000000,-400.000000,-400.000000,-400.000000,6
36676263,-1.401663,-3.557968,-2.156305,2.479815,0.377321,-2.857137,-400.000000,-400.000000,-400.000000,-400.000000,-400.000000,-400.000000,6
36678259,-1.363516,-3.558922,-2.195406,2.461219,0.415945,-2.877164,-400.000000,-400.000000,-400.000000,-400.000000,-400.000000,-400.000000,6
36680255,-1.329660,-3.563499,-2.233839,2.446580,0.452089,-2.898669,-400.000000,-400.000000,-400.000000,-400.000000,-400.000000,-400.000000,6
36682253,-1.303148,-3.579712,-2.276564,2.441430,0.486708,-2.928138,-400.000000,-400.000000,-400.000000,-400.000000,-400.000000,-400.000000,6
36684249,-1.288891,-3.575945,-2.287054,2.432418,0.499082,-2.931499,-400.000000,-400.000000,-400.000000,-400.000000,-400.000000,-400.000000,6
36686245,-1.297998,-3.563261,-2.265263,2.430630,0.483632,-2.914262,-400.000000,-400.000000,-400.000000,-400.000000,-400.000000,-400.000000,6
36688242,-1.325655,-3.557253,-2.231598,2.441454,0.452971,-2.894425,-400.000000,-400.000000,-400.000000,-400.000000,-400.000000,-400.000000,6
36690241,-1.346111,-3.550386,-2.204275,2.448249,0.429082,-2.877331,-400.000000,-400.000000,-400.000000,-400.000000,-400.000000,-400.000000,6
36692236,-1.382399,-3.545570,-2.163172,2.463984,0.390387,-2.854371,-400.000000,-400.000000,-400.000000,-400.000000,-400.000000,-400.000000,6
36694232,-1.393700,-3.547907,-2.154207,2.470803,0.380254,-2.851057,-400.000000,-400.000000,-400.000000,-400.000000,-400.000000,-400.000000,6
36696229,-1.394367,-3.562737,-2.168369,2.478552,0.387001,-2.865553,-400.000000,-400.000000,-400.000000,-400.000000,-400.000000,-400.000000,6
36698226,-1.371336,-3.574181,-2.202845,2.472758,0.415754,-2.888513,-400.000000,-400.000000,-400.000000,-400.000000,-400.000000,-400.000000,6
36700222,-1.342201,-3.581572,-2.239370,2.461886,0.448585,-2.910471,-400.000000,-400.000000,-400.000000,-400.000000,-400.000000,-400.000000,6
36702218,-1.334906,-3.606749,-2.271843,2.470827,0.468469,-2.939296,-400.000000,-400.000000,-400.000000,-400.000000,-400.000000,-400.000000,6
36704215,-1.342869,-3.615808,-2.272940,2.479339,0.465035,-2.944374,-400.000000,-400.000000,-400.000000,-400.000000,-400.000000,-400.000000,6
36706215,-1.356936,-3.611517,-2.254581,2.484226,0.448823,-2.933049,-400.000000,-400.000000,-400.000000,-400.000000,-400.000000,-400.000000,6
36708215,-1.395750,-3.612328,-2.216578,2.504039,0.410414,-2.914453,-400.000000,-400.000000,-400.000000,-400.000000,-400.000000,-400.000000,6
36710205,-1.426077,-3.597355,-2.171278,2.511716,0.372601,-2.884316,-400.000000,-400.000000,-400.000000,-400.000000,-400.000000,-400.000000,6
36712202,-1.442766,-3.585196,-2.142429,2.513981,0.349832,-2.863812,-400.000000,-400.000000,-400.000000,-400.000000,-400.000000,-400.000000,6
36714198,-1.458025,-3.577423,-2.119398,2.517724,0.330687,-2.848411,-400.000000,-400.000000,-400.000000,-400.000000,-400.000000,-400.000000,6
36716195,-1.459122,-3.576374,-2.117252,2.517748,0.329065,-2.846813,-400.000000,-400.000000,-400.000000,-400.000000,-400.000000,-400.000000,6
36718192,-1.420689,-3.581142,-2.160454,2.500916,0.369883,-2.870798,-400.000000,-400.000000,-400.000000,-400.000000,-400.000000,-400.000000,6
36720188,-1.367760,-3.585482,-2.217722,2.476621,0.424981,-2.901602,-400.000000,-400.000000,-400.000000,-400.000000,-400.000000,-400.000000,6
36722185,-1.364899,-3.601408,-2.236509,2.483153,0.435805,-2.918959,-400.000000,-400.000000,-400.000000,-400.000000,-400.000000,-400.000000,6
36724181,-1.363945,-3.616476,-2.252531,2.490211,0.444293,-2.934504,-400.000000,-400.000000,-400.000000,-400.000000,-400.000000,-400.000000,6
36726178,-1.374674,-3.612661,-2.237988,2.493668,0.431657,-2.925324,-400.000000,-400.000000,-400.000000,-400.000000,-400.000000,-400.000000,6
36728175,-1.432323,-3.611088,-2.178764,2.521706,0.373220,-2.894926,-400.000000,-400.000000,-400.000000,-400.000000,-400.000000,-400.000000,6
36730172,-1.457787,-3.603506,-2.145720,2.530646,0.343966,-2.874613,-400.000000,-400.000000,-400.000000,-400.000000,-400.000000,-400.000000,6
36732168,-1.455498,-3.585386,-2.129889,2.520442,0.337195,-2.857637,-400.000000,-400.000000,-400.000000,-400.000000,-400.000000,-400.000000,6
36734164,-1.472807,-3.576660,-2.103853,2.524734,0.315523,-2.840257,-400.000000,-400.000000,-400.000000,-400.000000,-400.000000,-400.000000,6
36736161,-1.457214,-3.580618,-2.123404,2.518916,0.333095,-2.852011,-400.000000,-400.000000,-400.000000,-400.000000,-400.000000,-400.000000,6
36738158,-1.414156,-3.576374,-2.162218,2.495265,0.374031,-2.869296,-400.000000,-400.000000,-400.000000,-400.000000,-400.000000,-400.000000,6
36740154,-1.374483,-3.578520,-2.204037,2.476501,0.414777,-2.891278,-400.000000,-400.000000,-400.000000,-400.000000,-400.000000,-400.000000,6
36742151,-1.357222,-3.594589,-2.237368,2.475905,0.440073,-2.915978,-400.000000,-400.000000,-400.000000,-400.000000,-400.000000,-400.000000,6
36744147,-1.357365,-3.609848,-2.252483,2.483606,0.447559,-2.931166,-400.000000,-400.000000,-400.000000,-400.000000,-400.000000,-400.000000,6
36746144,-1.368952,-3.603745,-2.234793,2.486348,0.432920,-2.919269,-400.000000,-400.000000,-400.000000,-400.000000,-400.000000,-400.000000,6
36748141,-1.388168,-3.590441,-2.202272,2.489305,0.407052,-2.896357,-400.000000,-400.000000,-400.000000,-400.000000,-400.000000,-400.000000,6
36750137,-1.417446,-3.594446,-2.177000,2.505946,0.379777,-2.885723,-400.000000,-400.000000,-400.000000,-400.000000,-400.000000,-400.000000,6
36752134,-1.430988,-3.586960,-2.155972,2.508974,0.362492,-2.871466,-400.000000,-400.000000,-400.000000,-400.000000,-400.000000,-400.000000,6
36754131,-1.443243,-3.579426,-2.136183,2.511334,0.346470,-2.857804,-400.000000,-400.000000,-400.000000,-400.000000,-400.000000,-400.000000,6
36756127,-1.424026,-3.576803,-2.152777,2.500415,0.364375,-2.864790,-400.000000,-400.000000,-400.000000,-400.000000,-400.000000,-400.000000,6
36758124,-1.390028,-3.582048,-2.192020,2.486038,0.400996,-2.887034,-400.000000,-400.000000,-400.000000,-400.000000,-400.000000,-400.000000,6
36760120,-1.342773,-3.586388,-2.243614,2.464581,0.450420,-2.915001,-400.000000,-400.000000,-400.000000,-400.000000,-400.000000,-400.000000,6
36762117,-1.317358,-3.595448,-2.278090,2.456403,0.480366,-2.936769,-400.000000,-400.000000,-400.000000,-400.000000,-400.000000,-400.000000,6
36764114,-1.316833,-3.605938,-2.289104,2.461386,0.486135,-2.947521,-400.000000,-400.000000,-400.000000,-400.000000,-400.000000,-400.000000,6
36766110,-1.332617,-3.610182,-2.277565,2.471399,0.472474,-2.943873,-400.000000,-400.000000,-400.000000,-400.000000,-400.000000,-400.000000,6
36768107,-1.364565,-3.605223,-2.240658,2.484894,0.438046,-2.922940,-400.000000,-400.000000,-400.000000,-400.000000,-400.000000,-400.000000,6
36770105,-1.413155,-3.596687,-2.183533,2.504921,0.385189,-2.890110,-400.000000,-400.000000,-400.000000,-400.000000,-400.000000,-400.000000,6
36772100,-1.462173,-3.587008,-2.124834,2.524590,0.331330,-2.855921,-400.000000,-400.000000,-400.000000,-400.000000,-400.000000,-400.000000,6
36774097,-1.489449,-3.579807,-2.090359,2.534628,0.300455,-2.835083,-400.000000,-400.000000,-400.000000,-400.000000,-400.000000,-400.000000,6
36776094,-1.462507,-3.586769,-2.124262,2.524638,0.330877,-2.855515,-400.000000,-400.000000,-400.000000,-400.000000,-400.000000,-400.000000,6
36778090,-1.410866,-3.588867,-2.178001,2.499866,0.383568,-2.883434,-400.000000,-400.000000,-400.000000,-400.000000,-400.000000,-400.000000,6
36780087,-1.362181,-3.592205,-2.230024,2.477193,0.433922,-2.911115,-400.000000,-400.000000,-400.000000,-400.000000,-400.000000,-400.000000,6
36782084,-1.345825,-3.609228,-2.263403,2.477527,0.458789,-2.936316,-400.000000,-400.000000,-400.000000,-400.000000,-400.000000,-400.000000,6
36784080,-1.335049,-3.612947,-2.277899,2.473998,0.471425,-2.945423,-400.000000,-400.000000,-400.000000,-400.000000,-400.000000,-400.000000,6
36786077,-1.324606,-3.607082,-2.282476,2.465844,0.478935,-2.944779,-400.000000,-400.000000,-400.000000,-400.000000,-400.000000,-400.000000,6
36788073,-1.339483,-3.586817,-2.247334,2.463150,0.453925,-2.917075,-400.000000,-400.000000,-400.000000,-400.000000,-400.000000,-400.000000,6
36790072,-1.365042,-3.558922,-2.193880,2.461982,0.414419,-2.876401,-400.000000,-400.000000,-400.000000,-400.000000,-400.000000,-400.000000,6
36792067,-1.369762,-3.535032,-2.165270,2.452397,0.397754,-2.850151,-400.000000,-400.000000,-400.000000,-400.000000,-400.000000,-400.000000,6
36794063,-1.369524,-3.509569,-2.140045,2.439547,0.385261,-2.824807,-400.000000,-400.000000,-400.000000,-400.000000,-400.000000,-400.000000,6
36796060,-1.347589,-3.482771,-2.135181,2.415180,0.393796,-2.808976,-400.000000,-400.000000,-400.000000,-400.000000,-400.000000,-400.000000,6
36798056,-1.312208,-3.455734,-2.143526,2.383971,0.415659,-2.799630,-400.000000,-400.000000,-400.000000,-400.000000,-400.000000,-400.000000,6
36800053,-1.275635,-3.439951,-2.164316,2.357793,0.444341,-2.802134,-400.000000,-400.000000,-400.000000,-400.000000,-400.000000,-400.000000,6
36802049,-1.246977,-3.439951,-2.192974,2.343464,0.472999,-2.816463,-400.000000,-400.000000,-400.000000,-400.000000,-400.000000,-400.000000,6
36804046,-1.239491,-3.436708,-2.197218,2.338099,0.478864,-2.816963,-400.000000,-400.000000,-400.000000,-400.000000,-400.000000,-400.000000,6
36806043,-1.257038,-3.438187,-2.181149,2.347612,0.462055,-2.809668,-400.000000,-400.000000,-400.000000,-400.000000,-400.000000,-400.000000,6
36808039,-1.287127,-3.429222,-2.142096,2.358174,0.427485,-2.785659,-400.000000,-400.000000,-400.000000,-400.000000,-400.000000,-400.000000,6
36810036,-1.319265,-3.424215,-2.104950,2.371740,0.392842,-2.764583,-400.000000,-400.000000,-400.000000,-400.000000,-400.000000,-400.000000,6
36812033,-1.332951,-3.420162,-2.087212,2.376556,0.377131,-2.753687,-400.000000,-400.000000,-400.000000,-400.000000,-400.000000,-400.000000,6
36814030,-1.328754,-3.418493,-2.089739,2.373624,0.380492,-2.754116,-400.000000,-400.000000,-400.000000,-400.000000,-400.000000,-400.000000,6
36816027,-1.331663,-3.388500,-2.056837,2.360082,0.362587,-2.722669,-400.000000,-400.000000,-400.000000,-400.000000,-400.000000,-400.000000,6
36818023,-1.274586,-3.361988,-2.087402,2.318287,0.406408,-2.724695,-400.000000,-400.000000,-400.000000,-400.000000,-400.000000,-400.000000,6
36820021,-1.226473,-3.349400,-2.122927,2.287936,0.448227,-2.736163,-400.000000,-400.000000,-400.000000,-400.000000,-400.000000,-400.000000,6
36822017,-1.184511,-3.354120,-2.169609,2.269316,0.492549,-2.761865,-400.000000,-400.000000,-400.000000,-400.000000,-400.000000,-400.000000,6
36824013,-1.166630,-3.342724,-2.176094,2.254677,0.504732,-2.759409,-400.000000,-400.000000,-400.000000,-400.000000,-400.000000,-400.000000,6
36826010,-1.177835,-3.328896,-2.151060,2.253366,0.486612,-2.739978,-400.000000,-400.000000,-400.000000,-400.000000,-400.000000,-400.000000,6
36828007,-1.188278,-3.324127,-2.135849,2.256203,0.473785,-2.729988,-400.000000,-400.000000,-400.000000,-400.000000,-400.000000,-400.000000,6
36830003,-1.216984,-3.331995,-2.115011,2.274489,0.449014,-2.723503,-400.000000,-400.000000,-400.000000,-400.000000,-400.000000,-400.000000,6
36832000,-1.233530,-3.333187,-2.099657,2.283359,0.433064,-2.716422,-400.000000,-400.000000,-400.000000,-400.000000,-400.000000,-400.000000,6
36833997,-1.257372,-3.351212,-2.093840,2.304292,0.418234,-2.722526,-400.000000,-400.000000,-400.000000,-400.000000,-400.000000,-400.000000,6
36835993,-1.249170,-3.388596,-2.139425,2.318883,0.445127,-2.764010,-400.000000,-400.000000,-400.000000,-400.000000,-400.000000,-400.000000,6
36837990,-1.220369,-3.420544,-2.200174,2.320457,0.489902,-2.810359,-400.000000,-400.000000,-400.000000,-400.000000,-400.000000,-400.000000,6
36839987,-1.175880,-3.435230,-2.259350,2.305555,0.541735,-2.847290,-400.000000,-400.000000,-400.000000,-400.000000,-400.000000,-400.000000,6
36841984,-1.155663,-3.464079,-2.308416,2.309871,0.576377,-2.886248,-400.000000,-400.000000,-400.000000,-400.000000,-400.000000,-400.000000,6
36843980,-1.151276,-3.505230,-2.353954,2.328253,0.601339,-2.929592,-400.000000,-400.000000,-400.000000,-400.000000,-400.000000,-400.000000,6
36845977,-1.150084,-3.524780,-2.374697,2.337432,0.612307,-2.949739,-400.000000,-400.000000,-400.000000,-400.000000,-400.000000,-400.000000,6
36847974,-1.174355,-3.538465,-2.364111,2.356410,0.594878,-2.951288,-400.000000,-400.000000,-400.000000,-400.000000,-400.000000,-400.000000,6
36849970,-1.218033,-3.541327,-2.323294,2.379680,0.552630,-2.932310,-400.000000,-400.000000,-400.000000,-400.000000,-400.000000,-400.000000,6
36851968,-1.238871,-3.539562,-2.300692,2.389216,0.530910,-2.920127,-400.000000,-400.000000,-400.000000,-400.000000,-400.000000,-400.000000,6
36853964,-1.258135,-3.560829,-2.302694,2.409482,0.522280,-2.931762,-400.000000,-400.000000,-400.000000,-400.000000,-400.000000,-400.000000,6
36855960,-1.244545,-3.572178,-2.327633,2.408361,0.541544,-2.949905,-400.000000,-400.000000,-400.000000,-400.000000,-400.000000,-400.000000,6
36857957,-1.192331,-3.584337,-2.392006,2.388334,0.599837,-2.988172,-400.000000,-400.000000,-400.000000,-400.000000,-400.000000,-400.000000,6
36859954,-1.150179,-3.604460,-2.454281,2.377319,0.652051,-3.029370,-400.000000,-400.000000,-400.000000,-400.000000,-400.000000,-400.000000,6
36861950,-1.133251,-3.633213,-2.499962,2.383232,0.683355,-3.066587,-400.000000,-400.000000,-400.000000,-400.000000,-400.000000,-400.000000,6
36863947,-1.128817,-3.650713,-2.521896,2.389765,0.696540,-3.086305,-400.000000,-400.000000,-400.000000,-400.000000,-400.000000,-400.000000,6
36865944,-1.143980,-3.653717,-2.509737,2.398849,0.682878,-3.081727,-400.000000,-400.000000,-400.000000,-400.000000,-400.000000,-400.000000,6
36867940,-1.172352,-3.650808,-2.478456,2.411580,0.653052,-3.064632,-400.000000,-400.000000,-400.000000,-400.000000,-400.000000,-400.000000,6
36869939,-1.195049,-3.644371,-2.449322,2.419710,0.627136,-3.046846,-400.000000,-400.000000,-400.000000,-400.000000,-400.000000,-400.000000,6
36871934,-1.212215,-3.634644,-2.422428,2.423429,0.605106,-3.028536,-400.000000,-400.000000,-400.000000,-400.000000,-400.000000,-400.000000,6
36873931,-1.237297,-3.618526,-2.381229,2.427912,0.571966,-2.999878,-400.000000,-400.000000,-400.000000,-400.000000,-400.000000,-400.000000,6
36875928,-1.219606,-3.626919,-2.407312,2.423263,0.593853,-3.017116,-400.000000,-400.000000,-400.000000,-400.000000,-400.000000,-400.000000,6
36877924,-1.188898,-3.633690,-2.444792,2.411294,0.627947,-3.039241,-400.000000,-400.000000,-400.000000,-400.000000,-400.000000,-400.000000,6
36879921,-1.147127,-3.634739,-2.487612,2.390933,0.670242,-3.061175,-400.000000,-400.000000,-400.000000,-400.000000,-400.000000,-400.000000,6
36881918,-1.142073,-3.652430,-2.510357,2.397251,0.684142,-3.081393,-400.000000,-400.000000,-400.000000,-400.000000,-400.000000,-400.000000,6
36883914,-1.146412,-3.665447,-2.519035,2.405930,0.686312,-3.092241,-400.000000,-400.000000,-400.000000,-400.000000,-400.000000,-400.000000,6
36885911,-1.154423,-3.658247,-2.503824,2.406335,0.674701,-3.081036,-400.000000,-400.000000,-400.000000,-400.000000,-400.000000,-400.000000,6
36887908,-1.198292,-3.661013,-2.462721,2.429652,0.632215,-3.061867,-400.000000,-400.000000,-400.000000,-400.000000,-400.000000,-400.000000,6
36889907,-1.243258,-3.659201,-2.415943,2.451229,0.586343,-3.037572,-400.000000,-400.000000,-400.000000,-400.000000,-400.000000,-400.000000,6
36891901,-1.262760,-3.642559,-2.379799,2.452660,0.558519,-3.011179,-400.000000,-400.000000,-400.000000,-400.000000,-400.000000,-400.000000,6
36893898,-1.270342,-3.650618,-2.380276,2.460480,0.554967,-3.015447,-400.000000,-400.000000,-400.000000,-400.000000,-400.000000,-400.000000,6
36895896,-1.255083,-3.646231,-2.391148,2.450657,0.568032,-3.018689,-400.000000,-400.000000,-400.000000,-400.000000,-400.000000,-400.000000,6
36897892,-1.231480,-3.635836,-2.404356,2.433658,0.586438,-3.020096,-400.000000,-400.000000,-400.000000,-400.000000,-400.000000,-400.000000,6
36899889,-1.195621,-3.644657,-2.449036,2.420139,0.626707,-3.046846,-400.000000,-400.000000,-400.000000,-400.000000,-400.000000,-400.000000,6
36901885,-1.170444,-3.662872,-2.492428,2.416658,0.660992,-3.077650,-400.000000,-400.000000,-400.000000,-400.000000,-400.000000,-400.000000,6
36903882,-1.171350,-3.682804,-2.511454,2.427077,0.670052,-3.097129,-400.000000,-400.000000,-400.000000,-400.000000,-400.000000,-400.000000,6
36905879,-1.187611,-3.676748,-2.489138,2.432179,0.650764,-3.082943,-400.000000,-400.000000,-400.000000,-400.000000,-400.000000,-400.000000,6
36907876,-1.219511,-3.669596,-2.450085,2.444553,0.615287,-3.059840,-400.000000,-400.000000,-400.000000,-400.000000,-400.000000,-400.000000,6
36909872,-1.257372,-3.657150,-2.399778,2.457261,0.571203,-3.028464,-400.000000,-400.000000,-400.000000,-400.000000,-400.000000,-400.000000,6
36911869,-1.283836,-3.633738,-2.349901,2.458787,0.533032,-2.991819,-400.000000,-400.000000,-400.000000,-400.000000,-400.000000,-400.000000,6
36913866,-1.303387,-3.611898,-2.308512,2.457643,0.502563,-2.960205,-400.000000,-400.000000,-400.000000,-400.000000,-400.000000,-400.000000,6
36915862,-1.309967,-3.613758,-2.303791,2.461863,0.496912,-2.958775,-400.000000,-400.000000,-400.000000,-400.000000,-400.000000,-400.000000,6
36917859,-1.285172,-3.603220,-2.318048,2.444196,0.516438,-2.960634,-400.000000,-400.000000,-400.000000,-400.000000,-400.000000,-400.000000,6
36919856,-1.266432,-3.597927,-2.331495,2.432179,0.532532,-2.964711,-400.000000,-400.000000,-400.000000,-400.000000,-400.000000,-400.000000,6
36921852,-1.276398,-3.606606,-2.330208,2.441502,0.526905,-2.968407,-400.000000,-400.000000,-400.000000,-400.000000,-400.000000,-400.000000,6
36923849,-1.275730,-3.591871,-2.316141,2.433801,0.520205,-2.954006,-400.000000,-400.000000,-400.000000,-400.000000,-400.000000,-400.000000,6
36925846,-1.279020,-3.556108,-2.277088,2.417564,0.499034,-2.916598,-400.000000,-400.000000,-400.000000,-400.000000,-400.000000,-400.000000,6
36927843,-1.266575,-3.495598,-2.229023,2.381086,0.481224,-2.862310,-400.000000,-400.000000,-400.000000,-400.000000,-400.000000,-400.000000,6
36929840,-1.247025,-3.421354,-2.174330,2.334189,0.463653,-2.797842,-400.000000,-400.000000,-400.000000,-400.000000,-400.000000,-400.000000,6
36931837,-1.241970,-3.340912,-2.098942,2.291441,0.428486,-2.719927,-400.000000,-400.000000,-400.000000,-400.000000,-400.000000,-400.000000,6
36933833,-1.221609,-3.226042,-2.004433,2.223825,0.391412,-2.615237,-400.000000,-400.000000,-400.000000,-400.000000,-400.000000,-400.000000,6
36935829,-1.162958,-3.115463,-1.952505,2.139211,0.394773,-2.533984,-400.000000,-400.000000,-400.000000,-400.000000,-400.000000,-400.000000,6
36937826,-1.093912,-3.041935,-1.948023,2.067924,0.427055,-2.494979,-400.000000,-400.000000,-400.000000,-400.000000,-400.000000,-400.000000,6
36939823,-0.994968,-2.970028,-1.975060,1.982498,0.490046,-2.472544,-400.000000,-400.000000,-400.000000,-400.000000,-400.000000,-400.000000,6
36941819,-0.903559,-2.901936,-1.998377,1.902747,0.547409,-2.450156,-400.000000,-400.000000,-400.000000,-400.000000,-400.000000,-400.000000,6
36943816,-0.829172,-2.848673,-2.019501,1.838923,0.595164,-2.434087,-400.000000,-400.000000,-400.000000,-400.000000,-400.000000,-400.000000,6
36945813,-0.800419,-2.749109,-1.948690,1.774764,0.574136,-2.348900,-400.000000,-400.000000,-400.000000,-400.000000,-400.000000,-400.000000,6
36947809,-0.794220,-2.651739,-1.857519,1.722980,0.531650,-2.254629,-400.000000,-400.000000,-400.000000,-400.000000,-400.000000,-400.000000,6
36949806,-0.794363,-2.601242,-1.806879,1.697803,0.506258,-2.204061,-400.000000,-400.000000,-400.000000,-400.000000,-400.000000,-400.000000,6
36951803,-0.793076,-2.607584,-1.814508,1.700330,0.510716,-2.211046,-400.000000,-400.000000,-400.000000,-400.000000,-400.000000,-400.000000,6
36953800,-0.777435,-2.725172,-1.947737,1.751304,0.585151,-2.336454,-400.000000,-400.000000,-400.000000,-400.000000,-400.000000,-400.000000,6
36955796,-0.769424,-2.965021,-2.195597,1.867223,0.713086,-2.580309,-400.000000,-400.000000,-400.000000,-400.000000,-400.000000,-400.000000,6
36957793,-0.780392,-3.215551,-2.435160,1.997972,0.827384,-2.825356,-400.000000,-400.000000,-400.000000,-400.000000,-400.000000,-400.000000,6
36959790,-0.755978,-3.511715,-2.755737,2.133846,0.999880,-3.133726,-400.000000,-400.000000,-400.000000,-400.000000,-400.000000,-400.000000,6
36961787,-0.756979,-3.853941,-3.096962,2.305460,1.169991,-3.475451,-400.000000,-400.000000,-400.000000,-400.000000,-400.000000,-400.000000,6
36963783,-0.801563,-4.262686,-3.461123,2.532125,1.329780,-3.861904,-400.000000,-400.000000,-400.000000,-400.000000,-400.000000,-400.000000,6
36965780,-0.908470,-4.522753,-3.614283,2.715611,1.352906,-4.068518,-400.000000,-400.000000,-400.000000,-400.000000,-400.000000,-400.000000,6
36967777,-1.012182,-4.622889,-3.610706,2.817535,1.299262,-4.116797,-400.000000,-400.000000,-400.000000,-400.000000,-400.000000,-400.000000,6
36969775,-1.078033,-4.613972,-3.535938,2.846003,1.228952,-4.074955,-400.000000,-400.000000,-400.000000,-400.000000,-400.000000,-400.000000,6
36971770,-1.142168,-4.538298,-3.396130,2.840233,1.126981,-3.967214,-400.000000,-400.000000,-400.000000,-400.000000,-400.000000,-400.000000,6
36973768,-1.197577,-4.431248,-3.233671,2.814412,1.018047,-3.832459,-400.000000,-400.000000,-400.000000,-400.000000,-400.000000,-400.000000,6
36975764,-1.215553,-4.307222,-3.091669,2.761388,0.938058,-3.699446,-400.000000,-400.000000,-400.000000,-400.000000,-400.000000,-400.000000,6
36977761,-1.201391,-4.193258,-2.991867,2.697325,0.895238,-3.592563,-400.000000,-400.000000,-400.000000,-400.000000,-400.000000,-400.000000,6
36979758,-1.173973,-4.102755,-2.928782,2.638364,0.877404,-3.515768,-400.000000,-400.000000,-400.000000,-400.000000,-400.000000,-400.000000,6
36981754,-1.154089,-4.031658,-2.877569,2.592874,0.861740,-3.454614,-400.000000,-400.000000,-400.000000,-400.000000,-400.000000,-400.000000,6
36983751,-1.161671,-3.942728,-2.781057,2.552199,0.809693,-3.361893,-400.000000,-400.000000,-400.000000,-400.000000,-400.000000,-400.000000,6
36985748,-1.160240,-3.883410,-2.723169,2.521825,0.781465,-3.303289,-400.000000,-400.000000,-400.000000,-400.000000,-400.000000,-400.000000,6
36987744,-1.191473,-3.836393,-2.644920,2.513933,0.726724,-3.240657,-400.000000,-400.000000,-400.000000,-400.000000,-400.000000,-400.000000,6
36989744,-1.241541,-3.793049,-2.551508,2.517295,0.654984,-3.172278,-400.000000,-400.000000,-400.000000,-400.000000,-400.000000,-400.000000,6
36991739,-1.263952,-3.750658,-2.486706,2.507305,0.611377,-3.118682,-400.000000,-400.000000,-400.000000,-400.000000,-400.000000,-400.000000,6
36993735,-1.283360,-3.711319,-2.427959,2.497339,0.572300,-3.069639,-400.000000,-400.000000,-400.000000,-400.000000,-400.000000,-400.000000,6
36995731,-1.273966,-3.691006,-2.417040,2.482486,0.571537,-3.054023,-400.000000,-400.000000,-400.000000,-400.000000,-400.000000,-400.000000,6
36997728,-1.255083,-3.683758,-2.428675,2.469420,0.586796,-3.056216,-400.000000,-400.000000,-400.000000,-400.000000,-400.000000,-400.000000,6
36999725,-1.219320,-3.678656,-2.459335,2.448988,0.620008,-3.068995,-400.000000,-400.000000,-400.000000,-400.000000,-400.000000,-400.000000,6
37001721,-1.201391,-3.690863,-2.489471,2.446127,0.644040,-3.090167,-400.000000,-400.000000,-400.000000,-400.000000,-400.000000,-400.000000,6
37003718,-1.202965,-3.705072,-2.502108,2.454019,0.649571,-3.103590,-400.000000,-400.000000,-400.000000,-400.000000,-400.000000,-400.000000,6
37005715,-1.212072,-3.698063,-2.485991,2.455068,0.636959,-3.092027,-400.000000,-400.000000,-400.000000,-400.000000,-400.000000,-400.000000,6
37007712,-1.237488,-3.683043,-2.445555,2.460265,0.604033,-3.064299,-400.000000,-400.000000,-400.000000,-400.000000,-400.000000,-400.000000,6
37009711,-1.278162,-3.674698,-2.396536,2.476430,0.559187,-3.035617,-400.000000,-400.000000,-400.000000,-400.000000,-400.000000,-400.000000,6
37011706,-1.297092,-3.660870,-2.363777,2.478981,0.533342,-3.012323,-400.000000,-400.000000,-400.000000,-400.000000,-400.000000,-400.000000,6
37013702,-1.306343,-3.644323,-2.337980,2.475333,0.515819,-2.991152,-400.000000,-400.000000,-400.000000,-400.000000,-400.000000,-400.000000,6
37015699,-1.295137,-3.646135,-2.350998,2.470636,0.527930,-2.998567,-400.000000,-400.000000,-400.000000,-400.000000,-400.000000,-400.000000,6
37017695,-1.261997,-3.649044,-2.387047,2.455521,0.562525,-3.018045,-400.000000,-400.000000,-400.000000,-400.000000,-400.000000,-400.000000,6
37019692,-1.217318,-3.652525,-2.435207,2.434921,0.608945,-3.043866,-400.000000,-400.000000,-400.000000,-400.000000,-400.000000,-400.000000,6
37021689,-1.195908,-3.655386,-2.459478,2.425647,0.631785,-3.057432,-400.000000,-400.000000,-400.000000,-400.000000,-400.000000,-400.000000,6
37023685,-1.187134,-3.644323,-2.457190,2.415729,0.635028,-3.050756,-400.000000,-400.000000,-400.000000,-400.000000,-400.000000,-400.000000,6
37025682,-1.186562,-3.631926,-2.445364,2.409244,0.629401,-3.038645,-400.000000,-400.000000,-400.000000,-400.000000,-400.000000,-400.000000,6
37027679,-1.222801,-3.631306,-2.408504,2.427053,0.592852,-3.019905,-400.000000,-400.000000,-400.000000,-400.000000,-400.000000,-400.000000,6
37029676,-1.267338,-3.631592,-2.364254,2.449465,0.548458,-2.997923,-400.000000,-400.000000,-400.000000,-400.000000,-400.000000,-400.000000,6
37031672,-1.293373,-3.634977,-2.341604,2.464175,0.524116,-2.988291,-400.000000,-400.000000,-400.000000,-400.000000,-400.000000,-400.000000,6
37033669,-1.316547,-3.626537,-2.309990,2.471542,0.496721,-2.968264,-400.000000,-400.000000,-400.000000,-400.000000,-400.000000,-400.000000,6
37035666,-1.294231,-3.621197,-2.326965,2.457714,0.516367,-2.974081,-400.000000,-400.000000,-400.000000,-400.000000,-400.000000,-400.000000,6
37037662,-1.255941,-3.621387,-2.365446,2.438664,0.554752,-2.993417,-400.000000,-400.000000,-400.000000,-400.000000,-400.000000,-400.000000,6
37039659,-1.224566,-3.623772,-2.399206,2.424169,0.587320,-3.011489,-400.000000,-400.000000,-400.000000,-400.000000,-400.000000,-400.000000,6
37041656,-1.193380,-3.631639,-2.438259,2.412510,0.622439,-3.034949,-400.000000,-400.000000,-400.000000,-400.000000,-400.000000,-400.000000,6
37043653,-1.177406,-3.643227,-2.465820,2.410316,0.644207,-3.054523,-400.000000,-400.000000,-400.000000,-400.000000,-400.000000,-400.000000,6
37045649,-1.179552,-3.640032,-2.460480,2.409792,0.640464,-3.050256,-400.000000,-400.000000,-400.000000,-400.000000,-400.000000,-400.000000,6
37047646,-1.203728,-3.631449,-2.427721,2.417588,0.611997,-3.029585,-400.000000,-400.000000,-400.000000,-400.000000,-400.000000,-400.000000,6
37049643,-1.246738,-3.628063,-2.381325,2.437401,0.567293,-3.004694,-400.000000,-400.000000,-400.000000,-400.000000,-400.000000,-400.000000,6
37051640,-1.266861,-3.628111,-2.361250,2.447486,0.547194,-2.994680,-400.000000,-400.000000,-400.000000,-400.000000,-400.000000,-400.000000,6
37053636,-1.280260,-3.607225,-2.326965,2.443743,0.523353,-2.967095,-400.000000,-400.000000,-400.000000,-400.000000,-400.000000,-400.000000,6
37055633,-1.273441,-3.605461,-2.332020,2.439451,0.529289,-2.968740,-400.000000,-400.000000,-400.000000,-400.000000,-400.000000,-400.000000,6
37057629,-1.242876,-3.612804,-2.369928,2.427840,0.563526,-2.991366,-400.000000,-400.000000,-400.000000,-400.000000,-400.000000,-400.000000,6
37059626,-1.188564,-3.611612,-2.423048,2.400088,0.617242,-3.017330,-400.000000,-400.000000,-400.000000,-400.000000,-400.000000,-400.000000,6
37061623,-1.173162,-3.627491,-2.454329,2.400327,0.640583,-3.040910,-400.000000,-400.000000,-400.000000,-400.000000,-400.000000,-400.000000,6
37063619,-1.176739,-3.644657,-2.467918,2.410698,0.645590,-3.056288,-400.000000,-400.000000,-400.000000,-400.000000,-400.000000,-400.000000,6
37065616,-1.178598,-3.631449,-2.452850,2.405024,0.637126,-3.042150,-400.000000,-400.000000,-400.000000,-400.000000,-400.000000,-400.000000,6
37067613,-1.207542,-3.612947,-2.405405,2.410245,0.598931,-3.009176,-400.000000,-400.000000,-400.000000,-400.000000,-400.000000,-400.000000,6
37069611,-1.243210,-3.603649,-2.360439,2.423429,0.558615,-2.982044,-400.000000,-400.000000,-400.000000,-400.000000,-400.000000,-400.000000,6
37071606,-1.267672,-3.595734,-2.328062,2.431703,0.530195,-2.961898,-400.000000,-400.000000,-400.000000,-400.000000,-400.000000,-400.000000,6
37073603,-1.286268,-3.591251,-2.304983,2.438760,0.509357,-2.948117,-400.000000,-400.000000,-400.000000,-400.000000,-400.000000,-400.000000,6
37075599,-1.271105,-3.602219,-2.331114,2.436662,0.530005,-2.966666,-400.000000,-400.000000,-400.000000,-400.000000,-400.000000,-400.000000,6
37077596,-1.234961,-3.594542,-2.359581,2.414751,0.562310,-2.977061,-400.000000,-400.000000,-400.000000,-400.000000,-400.000000,-400.000000,6
37079593,-1.189566,-3.594971,-2.405405,2.392268,0.607920,-3.000188,-400.000000,-400.000000,-400.000000,-400.000000,-400.000000,-400.000000,6
37081590,-1.167154,-3.613138,-2.445984,2.390146,0.639415,-3.029561,-400.000000,-400.000000,-400.000000,-400.000000,-400.000000,-400.000000,6
37083586,-1.134348,-3.631878,-2.497530,2.383113,0.681591,-3.064704,-400.000000,-400.000000,-400.000000,-400.000000,-400.000000,-400.000000,6
37085583,-1.149559,-3.618956,-2.469397,2.384257,0.659919,-3.044176,-400.000000,-400.000000,-400.000000,-400.000000,-400.000000,-400.000000,6
37087581,-1.189804,-3.610134,-2.420330,2.399969,0.615263,-3.015232,-400.000000,-400.000000,-400.000000,-400.000000,-400.000000,-400.000000,6
37089578,-1.216459,-3.602457,-2.385998,2.409458,0.584769,-2.994227,-400.000000,-400.000000,-400.000000,-400.000000,-400.000000,-400.000000,6
37091573,-1.234484,-3.585386,-2.350903,2.409935,0.558209,-2.968144,-400.000000,-400.000000,-400.000000,-400.000000,-400.000000,-400.000000,6
37093570,-1.243639,-3.562641,-2.319002,2.403140,0.537682,-2.940822,-400.000000,-400.000000,-400.000000,-400.000000,-400.000000,-400.000000,6
37095566,-1.230049,-3.558636,-2.328587,2.394342,0.549269,-2.943611,-400.000000,-400.000000,-400.000000,-400.000000,-400.000000,-400.000000,6
37097563,-1.202202,-3.568029,-2.365828,2.385116,0.581813,-2.966928,-400.000000,-400.000000,-400.000000,-400.000000,-400.000000,-400.000000,6
37099560,-1.160049,-3.579330,-2.419281,2.369690,0.629616,-2.999306,-400.000000,-400.000000,-400.000000,-400.000000,-400.000000,-400.000000,6
37101556,-1.138830,-3.595400,-2.456570,2.367115,0.658870,-3.025985,-400.000000,-400.000000,-400.000000,-400.000000,-400.000000,-400.000000,6
37103553,-1.130772,-3.597498,-2.466726,2.364135,0.667977,-3.032112,-400.000000,-400.000000,-400.000000,-400.000000,-400.000000,-400.000000,6
37105550,-1.139021,-3.588724,-2.449703,2.363873,0.655341,-3.019214,-400.000000,-400.000000,-400.000000,-400.000000,-400.000000,-400.000000,6
37107546,-1.167822,-3.576136,-2.408314,2.371979,0.620246,-2.992225,-400.000000,-400.000000,-400.000000,-400.000000,-400.000000,-400.000000,6
37109546,-1.193333,-3.562498,-2.369165,2.377915,0.587916,-2.965832,-400.000000,-400.000000,-400.000000,-400.000000,-400.000000,-400.000000,6
37111540,-1.205349,-3.551960,-2.346611,2.378654,0.570631,-2.949286,-400.000000,-400.000000,-400.000000,-400.000000,-400.000000,-400.000000,6
37113536,-1.221371,-3.535557,-2.314186,2.378464,0.546408,-2.924871,-400.000000,-400.000000,-400.000000,-400.000000,-400.000000,-400.000000,6
37115533,-1.205158,-3.531694,-2.326536,2.368426,0.560689,-2.929115,-400.000000,-400.000000,-400.000000,-400.000000,-400.000000,-400.000000,6
37117530,-1.166439,-3.536463,-2.370024,2.351451,0.601792,-2.953243,-400.000000,-400.000000,-400.000000,-400.000000,-400.000000,-400.000000,6
37119526,-1.119089,-3.546810,-2.427721,2.332950,0.654316,-2.987266,-400.000000,-400.000000,-400.000000,-400.000000,-400.000000,-400.000000,6
37121523,-1.094198,-3.558016,-2.463818,2.326107,0.684810,-3.010917,-400.000000,-400.000000,-400.000000,-400.000000,-400.000000,-400.000000,6
37123520,-1.075935,-3.568745,-2.492809,2.322340,0.708437,-3.030777,-400.000000,-400.000000,-400.000000,-400.000000,-400.000000,-400.000000,6
37125517,-1.080751,-3.571272,-2.490520,2.326012,0.704885,-3.030896,-400.000000,-400.000000,-400.000000,-400.000000,-400.000000,-400.000000,6
37127513,-1.120758,-3.576899,-2.456141,2.348828,0.667691,-3.016520,-400.000000,-400.000000,-400.000000,-400.000000,-400.000000,-400.000000,6
37129510,-1.157618,-3.572035,-2.414417,2.364826,0.628400,-2.993226,-400.000000,-400.000000,-400.000000,-400.000000,-400.000000,-400.000000,6
37131507,-1.170349,-3.559065,-2.388716,2.364707,0.609183,-2.973890,-400.000000,-400.000000,-400.000000,-400.000000,-400.000000,-400.000000,6
37133503,-1.171017,-3.533936,-2.362919,2.352476,0.595951,-2.948427,-400.000000,-400.000000,-400.000000,-400.000000,-400.000000,-400.000000,6
37135500,-1.156282,-3.521156,-2.364874,2.338719,0.604296,-2.943015,-400.000000,-400.000000,-400.000000,-400.000000,-400.000000,-400.000000,6
37137497,-1.120758,-3.528690,-2.407932,2.324724,0.643587,-2.968311,-400.000000,-400.000000,-400.000000,-400.000000,-400.000000,-400.000000,6
37139494,-1.076555,-3.534222,-2.457666,2.305388,0.690556,-2.995944,-400.000000,-400.000000,-400.000000,-400.000000,-400.000000,-400.000000,6
37141490,-1.055908,-3.538656,-2.482748,2.297282,0.713420,-3.010702,-400.000000,-400.000000,-400.000000,-400.000000,-400.000000,-400.000000,6
37143487,-1.046848,-3.550053,-2.503204,2.298450,0.728178,-3.026628,-400.000000,-400.000000,-400.000000,-400.000000,-400.000000,-400.000000,6
37145484,-1.048613,-3.546906,-2.498293,2.297759,0.724840,-3.022599,-400.000000,-400.000000,-400.000000,-400.000000,-400.000000,-400.000000,6
37147480,-1.069689,-3.535128,-2.465439,2.302408,0.697875,-3.000283,-400.000000,-400.000000,-400.000000,-400.000000,-400.000000,-400.000000,6
37149478,-1.100206,-3.526640,-2.426434,2.313423,0.663114,-2.976537,-400.000000,-400.000000,-400.000000,-400.000000,-400.000000,-400.000000,6
37151474,-1.127052,-3.523588,-2.396536,2.325320,0.634742,-2.960062,-400.000000,-400.000000,-400.000000,-400.000000,-400.000000,-400.000000,6
37153470,-1.144695,-3.519297,-2.374601,2.331996,0.614953,-2.946949,-400.000000,-400.000000,-400.000000,-400.000000,-400.000000,-400.000000,6
37155467,-1.129818,-3.529644,-2.399826,2.329731,0.635004,-2.964735,-400.000000,-400.000000,-400.000000,-400.000000,-400.000000,-400.000000,6
37157464,-1.104355,-3.546238,-2.441883,2.325296,0.668764,-2.994061,-400.000000,-400.000000,-400.000000,-400.000000,-400.000000,-400.000000,6
37159460,-1.068878,-3.564692,-2.495813,2.316785,0.713468,-3.030252,-400.000000,-400.000000,-400.000000,-400.000000,-400.000000,-400.000000,6
37161457,-1.051140,-3.577232,-2.526093,2.314186,0.737476,-3.051662,-400.000000,-400.000000,-400.000000,-400.000000,-400.000000,-400.000000,6
37163454,-1.040363,-3.589725,-2.549362,2.315044,0.754499,-3.069544,-400.000000,-400.000000,-400.000000,-400.000000,-400.000000,-400.000000,6
37165450,-1.047897,-3.584623,-2.536726,2.316260,0.744414,-3.060675,-400.000000,-400.000000,-400.000000,-400.000000,-400.000000,-400.000000,6
37167447,-1.068783,-3.567648,-2.498865,2.318215,0.715041,-3.033257,-400.000000,-400.000000,-400.000000,-400.000000,-400.000000,-400.000000,6
37169445,-1.114559,-3.564215,-2.449656,2.339387,0.667548,-3.006935,-400.000000,-400.000000,-400.000000,-400.000000,-400.000000,-400.000000,6
37171440,-1.147604,-3.556776,-2.409172,2.352190,0.630784,-2.982974,-400.000000,-400.000000,-400.000000,-400.000000,-400.000000,-400.000000,6
37173437,-1.161909,-3.541422,-2.379513,2.351665,0.608802,-2.960467,-400.000000,-400.000000,-400.000000,-400.000000,-400.000000,-400.000000,6
37175434,-1.163197,-3.536558,-2.373362,2.349877,0.605083,-2.954960,-400.000000,-400.000000,-400.000000,-400.000000,-400.000000,-400.000000,6
37177431,-1.136637,-3.547716,-2.411079,2.342176,0.637221,-2.979398,-400.000000,-400.000000,-400.000000,-400.000000,-400.000000,-400.000000,6
37179427,-1.096058,-3.549623,-2.453566,2.322841,0.678754,-3.001595,-400.000000,-400.000000,-400.000000,-400.000000,-400.000000,-400.000000,6
37181424,-1.082706,-3.553104,-2.470398,2.317905,0.693846,-3.011751,-400.000000,-400.000000,-400.000000,-400.000000,-400.000000,-400.000000,6
37183421,-1.067781,-3.565311,-2.497530,2.316546,0.714874,-3.031421,-400.000000,-400.000000,-400.000000,-400.000000,-400.000000,-400.000000,6
37185418,-1.058388,-3.570604,-2.512217,2.314496,0.726914,-3.041410,-400.000000,-400.000000,-400.000000,-400.000000,-400.000000,-400.000000,6
37187414,-1.097870,-3.561783,-2.463913,2.329826,0.683022,-3.012848,-400.000000,-400.000000,-400.000000,-400.000000,-400.000000,-400.000000,6
37189414,-1.153421,-3.539371,-2.385950,2.346396,0.616264,-2.962661,-400.000000,-400.000000,-400.000000,-400.000000,-400.000000,-400.000000,6
37191408,-1.169157,-3.527975,-2.358818,2.348566,0.594831,-2.943397,-400.000000,-400.000000,-400.000000,-400.000000,-400.000000,-400.000000,6
37193405,-1.186562,-3.509378,-2.322817,2.347970,0.568128,-2.916098,-400.000000,-400.000000,-400.000000,-400.000000,-400.000000,-400.000000,6
37195401,-1.185656,-3.519249,-2.333593,2.352452,0.573969,-2.926421,-400.000000,-400.000000,-400.000000,-400.000000,-400.000000,-400.000000,6
37197398,-1.161814,-3.535318,-2.373505,2.348566,0.605845,-2.954412,-400.000000,-400.000000,-400.000000,-400.000000,-400.000000,-400.000000,6
37199395,-1.119471,-3.542137,-2.422667,2.330804,0.651598,-2.982402,-400.000000,-400.000000,-400.000000,-400.000000,-400.000000,-400.000000,6
37201391,-1.101732,-3.552246,-2.450514,2.326989,0.674391,-3.001380,-400.000000,-400.000000,-400.000000,-400.000000,-400.000000,-400.000000,6
37203388,-1.089621,-3.555870,-2.466249,2.322745,0.688314,-3.011060,-400.000000,-400.000000,-400.000000,-400.000000,-400.000000,-400.000000,6
37205385,-1.098776,-3.555346,-2.456570,2.327061,0.678897,-3.005958,-400.000000,-400.000000,-400.000000,-400.000000,-400.000000,-400.000000,6
37207381,-1.139259,-3.562307,-2.423048,2.350783,0.641894,-2.992678,-400.000000,-400.000000,-400.000000,-400.000000,-400.000000,-400.000000,6
37209378,-1.181507,-3.564787,-2.383280,2.373147,0.600886,-2.974033,-400.000000,-400.000000,-400.000000,-400.000000,-400.000000,-400.000000,6
37211375,-1.202536,-3.561831,-2.359295,2.382183,0.578380,-2.960563,-400.000000,-400.000000,-400.000000,-400.000000,-400.000000,-400.000000,6
37213371,-1.217556,-3.554773,-2.337217,2.386165,0.559831,-2.945995,-400.000000,-400.000000,-400.000000,-400.000000,-400.000000,-400.000000,6
37215368,-1.204967,-3.553772,-2.348804,2.379370,0.571918,-2.951288,-400.000000,-400.000000,-400.000000,-400.000000,-400.000000,-400.000000,6
37217365,-1.184034,-3.555679,-2.371645,2.369857,0.593805,-2.963662,-400.000000,-400.000000,-400.000000,-400.000000,-400.000000,-400.000000,6
37219361,-1.157188,-3.567028,-2.409840,2.362108,0.626326,-2.988434,-400.000000,-400.000000,-400.000000,-400.000000,-400.000000,-400.000000,6
37221358,-1.136112,-3.574038,-2.437925,2.355075,0.650907,-3.005981,-400.000000,-400.000000,-400.000000,-400.000000,-400.000000,-400.000000,6
37223355,-1.117945,-3.574896,-2.456951,2.346420,0.669503,-3.015924,-400.000000,-400.000000,-400.000000,-400.000000,-400.000000,-400.000000,6
37225351,-1.120520,-3.577900,-2.457380,2.349210,0.668430,-3.017640,-400.000000,-400.000000,-400.000000,-400.000000,-400.000000,-400.000000,6
37227348,-1.145697,-3.577089,-2.431393,2.361393,0.642848,-3.004241,-400.000000,-400.000000,-400.000000,-400.000000,-400.000000,-400.000000,6
37229345,-1.186180,-3.572559,-2.386379,2.379370,0.600100,-2.979469,-400.000000,-400.000000,-400.000000,-400.000000,-400.000000,-400.000000,6
37231341,-1.210642,-3.574228,-2.363586,2.392435,0.576472,-2.968907,-400.000000,-400.000000,-400.000000,-400.000000,-400.000000,-400.000000,6
37233338,-1.231003,-3.567934,-2.336931,2.399468,0.552964,-2.952433,-400.000000,-400.000000,-400.000000,-400.000000,-400.000000,-400.000000,6
37235335,-1.233435,-3.571606,-2.338171,2.402520,0.552368,-2.954888,-400.000000,-400.000000,-400.000000,-400.000000,-400.000000,-400.000000,6
37237331,-1.198196,-3.573513,-2.375317,2.385855,0.588560,-2.974415,-400.000000,-400.000000,-400.000000,-400.000000,-400.000000,-400.000000,6
37239328,-1.151896,-3.580427,-2.428532,2.366161,0.638318,-3.004479,-400.000000,-400.000000,-400.000000,-400.000000,-400.000000,-400.000000,6
37241325,-1.134491,-3.593922,-2.459431,2.364206,0.662470,-3.026676,-400.000000,-400.000000,-400.000000,-400.000000,-400.000000,-400.000000,6
37243321,-1.118183,-3.605843,-2.487659,2.362013,0.684738,-3.046751,-400.000000,-400.000000,-400.000000,-400.000000,-400.000000,-400.000000,6
37245318,-1.123762,-3.605556,-2.481794,2.364659,0.679016,-3.043675,-400.000000,-400.000000,-400.000000,-400.000000,-400.000000,-400.000000,6
37247315,-1.154375,-3.599358,-2.444983,2.376866,0.645304,-3.022170,-400.000000,-400.000000,-400.000000,-400.000000,-400.000000,-400.000000,6
37249312,-1.191950,-3.590488,-2.398539,2.391219,0.603294,-2.994514,-400.000000,-400.000000,-400.000000,-400.000000,-400.000000,-400.000000,6
37251308,-1.207638,-3.579950,-2.372313,2.393794,0.582337,-2.976131,-400.000000,-400.000000,-400.000000,-400.000000,-400.000000,-400.000000,6
37253306,-1.218843,-3.558254,-2.339411,2.388549,0.560284,-2.948833,-400.000000,-400.000000,-400.000000,-400.000000,-400.000000,-400.000000,6
37255302,-1.219273,-3.548908,-2.329636,2.384090,0.555182,-2.939272,-400.000000,-400.000000,-400.000000,-400.000000,-400.000000,-400.000000,6
37257298,-1.189327,-3.558016,-2.368689,2.373672,0.589681,-2.963352,-400.000000,-400.000000,-400.000000,-400.000000,-400.000000,-400.000000,6
37259295,-1.146746,-3.563261,-2.416515,2.355003,0.634885,-2.989888,-400.000000,-400.000000,-400.000000,-400.000000,-400.000000,-400.000000,6
37261292,-1.118898,-3.572655,-2.453756,2.345777,0.667429,-3.013206,-400.000000,-400.000000,-400.000000,-400.000000,-400.000000,-400.000000,6
37263288,-1.109123,-3.583765,-2.474642,2.346444,0.682759,-3.029203,-400.000000,-400.000000,-400.000000,-400.000000,-400.000000,-400.000000,6
37265285,-1.109552,-3.573656,-2.464104,2.341604,0.677276,-3.018880,-400.000000,-400.000000,-400.000000,-400.000000,-400.000000,-400.000000,6
37267282,-1.124096,-3.551674,-2.427578,2.337885,0.651741,-2.989626,-400.000000,-400.000000,-400.000000,-400.000000,-400.000000,-400.000000,6
37269280,-1.161528,-3.541899,-2.380371,2.351713,0.609422,-2.961135,-400.000000,-400.000000,-400.000000,-400.000000,-400.000000,-400.000000,6
37271276,-1.181459,-3.531265,-2.349806,2.356362,0.584173,-2.940536,-400.000000,-400.000000,-400.000000,-400.000000,-400.000000,-400.000000,6
37273272,-1.190042,-3.517723,-2.327681,2.353883,0.568819,-2.922702,-400.000000,-400.000000,-400.000000,-400.000000,-400.000000,-400.000000,6
37275268,-1.186180,-3.519011,-2.332830,2.352595,0.573325,-2.925920,-400.000000,-400.000000,-400.000000,-400.000000,-400.000000,-400.000000,6
37277265,-1.167345,-3.525162,-2.357817,2.346253,0.595236,-2.941489,-400.000000,-400.000000,-400.000000,-400.000000,-400.000000,-400.000000,6
37279263,-1.123667,-3.526402,-2.402735,2.325034,0.639534,-2.964568,-400.000000,-400.000000,-400.000000,-400.000000,-400.000000,-400.000000,6
37281259,-1.092958,-3.539276,-2.446318,2.316117,0.676680,-2.992797,-400.000000,-400.000000,-400.000000,-400.000000,-400.000000,-400.000000,6
37283255,-1.087046,-3.549862,-2.462816,2.318454,0.687885,-3.006339,-400.000000,-400.000000,-400.000000,-400.000000,-400.000000,-400.000000,6
37285253,-1.086521,-3.553295,-2.466774,2.319908,0.690126,-3.010035,-400.000000,-400.000000,-400.000000,-400.000000,-400.000000,-400.000000,6
37287249,-1.113987,-3.544426,-2.430439,2.329206,0.658226,-2.987432,-400.000000,-400.000000,-400.000000,-400.000000,-400.000000,-400.000000,6
37289249,-1.126146,-3.541040,-2.414894,2.333593,0.644374,-2.977967,-400.000000,-400.000000,-400.000000,-400.000000,-400.000000,-400.000000,6
37291243,-1.157475,-3.512287,-2.354813,2.334881,0.598669,-2.933550,-400.000000,-400.000000,-400.000000,-400.000000,-400.000000,-400.000000,6
37293239,-1.181507,-3.482771,-2.301264,2.332139,0.559878,-2.892017,-400.000000,-400.000000,-400.000000,-400.000000,-400.000000,-400.000000,6
37295236,-1.162434,-3.471375,-2.308941,2.316904,0.573254,-2.890158,-400.000000,-400.000000,-400.000000,-400.000000,-400.000000,-400.000000,6
37297233,-1.128817,-3.470993,-2.342176,2.299905,0.606680,-2.906585,-400.000000,-400.000000,-400.000000,-400.000000,-400.000000,-400.000000,6
37299230,-1.086330,-3.470373,-2.384043,2.278352,0.648856,-2.927208,-400.000000,-400.000000,-400.000000,-400.000000,-400.000000,-400.000000,6
37301226,-1.063347,-3.478289,-2.414942,2.270818,0.675797,-2.946615,-400.000000,-400.000000,-400.000000,-400.000000,-400.000000,-400.000000,6
37303223,-1.044941,-3.494358,-2.449417,2.269650,0.702238,-2.971888,-400.000000,-400.000000,-400.000000,-400.000000,-400.000000,-400.000000,6
37305221,-1.060581,-3.507996,-2.447414,2.284288,0.693417,-2.977705,-400.000000,-400.000000,-400.000000,-400.000000,-400.000000,-400.000000,6
37307216,-1.100111,-3.510857,-2.410746,2.305484,0.655317,-2.960801,-400.000000,-400.000000,-400.000000,-400.000000,-400.000000,-400.000000,6
37309215,-1.143551,-3.503275,-2.359724,2.323413,0.608087,-2.931499,-400.000000,-400.000000,-400.000000,-400.000000,-400.000000,-400.000000,6
37311215,-1.169777,-3.485060,-2.315283,2.327418,0.572753,-2.900171,-400.000000,-400.000000,-400.000000,-400.000000,-400.000000,-400.000000,6
37313215,-1.180458,-3.457260,-2.276802,2.318859,0.548172,-2.867031,-400.000000,-400.000000,-400.000000,-400.000000,-400.000000,-400.000000,6
37315203,-1.173306,-3.458452,-2.285147,2.315879,0.555921,-2.871799,-400.000000,-400.000000,-400.000000,-400.000000,-400.000000,-400.000000,6
37317200,-1.148367,-3.468418,-2.320051,2.308393,0.585842,-2.894235,-400.000000,-400.000000,-400.000000,-400.000000,-400.000000,-400.000000,6
37319197,-1.101923,-3.476334,-2.374411,2.289128,0.636244,-2.925372,-400.000000,-400.000000,-400.000000,-400.000000,-400.000000,-400.000000,6
37321193,-1.072454,-3.482866,-2.410412,2.277660,0.668979,-2.946639,-400.000000,-400.000000,-400.000000,-400.000000,-400.000000,-400.000000,6
37323190,-1.057243,-3.495979,-2.438736,2.276611,0.690746,-2.967358,-400.000000,-400.000000,-400.000000,-400.000000,-400.000000,-400.000000,6
37325187,-1.064730,-3.494596,-2.429867,2.279663,0.682569,-2.962232,-400.000000,-400.000000,-400.000000,-400.000000,-400.000000,-400.000000,6
37327183,-1.087713,-3.487110,-2.399397,2.287412,0.655842,-2.943254,-400.000000,-400.000000,-400.000000,-400.000000,-400.000000,-400.000000,6
37329181,-1.131868,-3.490543,-2.358675,2.311206,0.613403,-2.924609,-400.000000,-400.000000,-400.000000,-400.000000,-400.000000,-400.000000,6
37331177,-1.156759,-3.483725,-2.326965,2.320242,0.585103,-2.905345,-400.000000,-400.000000,-400.000000,-400.000000,-400.000000,-400.000000,6
37333174,-1.178598,-3.460455,-2.281857,2.319527,0.551629,-2.871156,-400.000000,-400.000000,-400.000000,-400.000000,-400.000000,-400.000000,6
37335170,-1.178265,-3.465700,-2.287436,2.321982,0.554585,-2.876568,-400.000000,-400.000000,-400.000000,-400.000000,-400.000000,-400.000000,6
37337167,-1.156044,-3.476524,-2.320480,2.316284,0.582218,-2.898502,-400.000000,-400.000000,-400.000000,-400.000000,-400.000000,-400.000000,6
37339164,-1.107645,-3.482246,-2.374601,2.294946,0.633478,-2.928424,-400.000000,-400.000000,-400.000000,-400.000000,-400.000000,-400.000000,6
37341160,-1.073074,-3.483248,-2.410173,2.278161,0.668550,-2.946711,-400.000000,-400.000000,-400.000000,-400.000000,-400.000000,-400.000000,6
37343157,-1.064396,-3.494596,-2.430201,2.279496,0.682902,-2.962399,-400.000000,-400.000000,-400.000000,-400.000000,-400.000000,-400.000000,6
37345154,-1.065397,-3.498888,-2.433491,2.282143,0.684047,-2.966189,-400.000000,-400.000000,-400.000000,-400.000000,-400.000000,-400.000000,6
37347150,-1.085806,-3.483963,-2.398157,2.284884,0.656176,-2.941060,-400.000000,-400.000000,-400.000000,-400.000000,-400.000000,-400.000000,6
37349147,-1.126623,-3.471136,-2.344513,2.298880,0.608945,-2.907825,-400.000000,-400.000000,-400.000000,-400.000000,-400.000000,-400.000000,6
37351144,-1.162624,-3.471565,-2.308941,2.317095,0.573158,-2.890253,-400.000000,-400.000000,-400.000000,-400.000000,-400.000000,-400.000000,6
37353141,-1.182175,-3.465271,-2.283096,2.323723,0.550461,-2.874184,-400.000000,-400.000000,-400.000000,-400.000000,-400.000000,-400.000000,6
37355137,-1.177740,-3.461266,-2.283525,2.319503,0.552893,-2.872396,-400.000000,-400.000000,-400.000000,-400.000000,-400.000000,-400.000000,6
37357134,-1.151609,-3.466940,-2.315331,2.309275,0.581861,-2.891135,-400.000000,-400.000000,-400.000000,-400.000000,-400.000000,-400.000000,6
37359131,-1.102543,-3.468084,-2.365541,2.285314,0.631499,-2.916813,-400.000000,-400.000000,-400.000000,-400.000000,-400.000000,-400.000000,6
37361127,-1.073837,-3.480005,-2.406168,2.276921,0.666165,-2.943087,-400.000000,-400.000000,-400.000000,-400.000000,-400.000000,-400.000000,6
37363124,-1.059866,-3.503990,-2.444124,2.281928,0.692129,-2.974057,-400.000000,-400.000000,-400.000000,-400.000000,-400.000000,-400.000000,6
37365121,-1.056576,-3.502750,-2.446175,2.279663,0.694799,-2.974463,-400.000000,-400.000000,-400.000000,-400.000000,-400.000000,-400.000000,6
37367117,-1.091385,-3.493595,-2.402210,2.292490,0.655413,-2.947903,-400.000000,-400.000000,-400.000000,-400.000000,-400.000000,-400.000000,6
37369115,-1.136255,-3.486443,-2.350187,2.311349,0.606966,-2.918315,-400.000000,-400.000000,-400.000000,-400.000000,-400.000000,-400.000000,6
37371111,-1.165438,-3.482628,-2.317190,2.324033,0.575876,-2.899909,-400.000000,-400.000000,-400.000000,-400.000000,-400.000000,-400.000000,6
37373107,-1.179314,-3.466892,-2.287579,2.323103,0.554132,-2.877235,-400.000000,-400.000000,-400.000000,-400.000000,-400.000000,-400.000000,6
37375104,-1.176453,-3.460932,-2.284479,2.318692,0.554013,-2.872705,-400.000000,-400.000000,-400.000000,-400.000000,-400.000000,-400.000000,6
37377101,-1.141977,-3.459311,-2.317333,2.300644,0.587678,-2.888322,-400.000000,-400.000000,-400.000000,-400.000000,-400.000000,-400.000000,6
37379097,-1.100254,-3.468370,-2.368116,2.284312,0.633931,-2.918243,-400.000000,-400.000000,-400.000000,-400.000000,-400.000000,-400.000000,6
37381094,-1.078892,-3.485107,-2.406216,2.282000,0.663662,-2.945662,-400.000000,-400.000000,-400.000000,-400.000000,-400.000000,-400.000000,6
37383091,-1.067114,-3.502083,-2.434969,2.284598,0.683928,-2.968526,-400.000000,-400.000000,-400.000000,-400.000000,-400.000000,-400.000000,6
37385087,-1.074314,-3.507710,-2.433395,2.291012,0.679541,-2.970552,-400.000000,-400.000000,-400.000000,-400.000000,-400.000000,-400.000000,6
37387084,-1.108170,-3.505659,-2.397490,2.306914,0.644660,-2.951574,-400.000000,-400.000000,-400.000000,-400.000000,-400.000000,-400.000000,6
37389082,-1.136398,-3.503132,-2.366734,2.319765,0.615168,-2.934933,-400.000000,-400.000000,-400.000000,-400.000000,-400.000000,-400.000000,6
37391078,-1.139450,-3.503704,-2.364254,2.321577,0.612402,-2.933979,-400.000000,-400.000000,-400.000000,-400.000000,-400.000000,-400.000000,6
37393075,-1.173925,-3.479433,-2.305508,2.326679,0.565791,-2.892470,-400.000000,-400.000000,-400.000000,-400.000000,-400.000000,-400.000000,6
37395071,-1.181412,-3.477287,-2.295876,2.329350,0.557232,-2.886581,-400.000000,-400.000000,-400.000000,-400.000000,-400.000000,-400.000000,6
37397068,-1.151228,-3.482914,-2.331686,2.317071,0.590229,-2.907300,-400.000000,-400.000000,-400.000000,-400.000000,-400.000000,-400.000000,6
37399064,-1.109791,-3.488970,-2.379179,2.299380,0.634694,-2.934074,-400.000000,-400.000000,-400.000000,-400.000000,-400.000000,-400.000000,6
37401061,-1.089907,-3.501987,-2.412081,2.295947,0.661087,-2.957034,-400.000000,-400.000000,-400.000000,-400.000000,-400.000000,-400.000000,6
37403058,-1.076460,-3.514051,-2.437592,2.295256,0.680566,-2.975821,-400.000000,-400.000000,-400.000000,-400.000000,-400.000000,-400.000000,6
37405054,-1.078033,-3.510141,-2.432108,2.294087,0.677037,-2.971125,-400.000000,-400.000000,-400.000000,-400.000000,-400.000000,-400.000000,6
37407051,-1.104450,-3.507280,-2.402830,2.305865,0.649190,-2.955055,-400.000000,-400.000000,-400.000000,-400.000000,-400.000000,-400.000000,6
37409050,-1.141262,-3.498888,-2.357626,2.320075,0.608182,-2.928257,-400.000000,-400.000000,-400.000000,-400.000000,-400.000000,-400.000000,6
37411045,-1.168299,-3.497648,-2.329350,2.332973,0.580525,-2.913499,-400.000000,-400.000000,-400.000000,-400.000000,-400.000000,-400.000000,6
37413041,-1.183367,-3.475523,-2.292156,2.329445,0.554395,-2.883840,-400.000000,-400.000000,-400.000000,-400.000000,-400.000000,-400.000000,6
37415038,-1.179552,-3.473377,-2.293825,2.326465,0.557137,-2.883601,-400.000000,-400.000000,-400.000000,-400.000000,-400.000000,-400.000000,6
37417035,-1.150322,-3.477669,-2.327347,2.313995,0.588512,-2.902508,-400.000000,-400.000000,-400.000000,-400.000000,-400.000000,-400.000000,6
37419031,-1.109171,-3.480816,-2.371645,2.294993,0.631237,-2.926230,-400.000000,-400.000000,-400.000000,-400.000000,-400.000000,-400.000000,6
37421028,-1.078606,-3.490400,-2.411795,2.284503,0.666595,-2.951097,-400.000000,-400.000000,-400.000000,-400.000000,-400.000000,-400.000000,6
37423025,-1.072025,-3.507090,-2.435064,2.289557,0.681520,-2.971077,-400.000000,-400.000000,-400.000000,-400.000000,-400.000000,-400.000000,6
37425021,-1.081753,-3.511572,-2.429819,2.296662,0.674033,-2.970695,-400.000000,-400.000000,-400.000000,-400.000000,-400.000000,-400.000000,6
37427018,-1.098108,-3.504753,-2.406645,2.301431,0.654268,-2.955699,-400.000000,-400.000000,-400.000000,-400.000000,-400.000000,-400.000000,6
37429015,-1.139736,-3.499317,-2.359581,2.319527,0.609922,-2.929449,-400.000000,-400.000000,-400.000000,-400.000000,-400.000000,-400.000000,6
37431011,-1.176882,-3.509188,-2.332306,2.343035,0.577712,-2.920747,-400.000000,-400.000000,-400.000000,-400.000000,-400.000000,-400.000000,6
37433008,-1.195383,-3.503513,-2.308130,2.349448,0.556374,-2.905822,-400.000000,-400.000000,-400.000000,-400.000000,-400.000000,-400.000000,6
37435005,-1.185656,-3.494501,-2.308846,2.340078,0.561595,-2.901673,-400.000000,-400.000000,-400.000000,-400.000000,-400.000000,-400.000000,6
37437001,-1.162100,-3.498793,-2.336693,2.330446,0.587296,-2.917743,-400.000000,-400.000000,-400.000000,-400.000000,-400.000000,-400.000000,6
37438998,-1.118565,-3.501272,-2.382708,2.309918,0.632071,-2.941990,-400.000000,-400.000000,-400.000000,-400.000000,-400.000000,-400.000000,6
37440995,-1.095200,-3.511763,-2.416563,2.303481,0.660682,-2.964163,-400.000000,-400.000000,-400.000000,-400.000000,-400.000000,-400.000000,6
37442991,-1.080465,-3.523016,-2.442551,2.301741,0.681043,-2.982783,-400.000000,-400.000000,-400.000000,-400.000000,-400.000000,-400.000000,6
37444988,-1.076746,-3.515482,-2.438736,2.296114,0.680995,-2.977109,-400.000000,-400.000000,-400.000000,-400.000000,-400.000000,-400.000000,6
37446985,-1.103783,-3.512239,-2.408457,2.308011,0.652337,-2.960348,-400.000000,-400.000000,-400.000000,-400.000000,-400.000000,-400.000000,6
37448983,-1.134014,-3.502226,-2.368212,2.318120,0.617099,-2.935219,-400.000000,-400.000000,-400.000000,-400.000000,-400.000000,-400.000000,6
37450978,-1.155710,-3.497744,-2.342033,2.326727,0.593162,-2.919888,-400.000000,-400.000000,-400.000000,-400.000000,-400.000000,-400.000000,6
37452975,-1.186609,-3.489256,-2.302647,2.337933,0.558019,-2.895951,-400.000000,-400.000000,-400.000000,-400.000000,-400.000000,-400.000000,6
37454971,-1.181793,-3.490829,-2.309036,2.336311,0.563622,-2.899933,-400.000000,-400.000000,-400.000000,-400.000000,-400.000000,-400.000000,6
37456968,-1.156569,-3.496361,-2.339792,2.326465,0.591612,-2.918077,-400.000000,-400.000000,-400.000000,-400.000000,-400.000000,-400.000000,6
37458965,-1.105022,-3.495979,-2.390957,2.300501,0.642967,-2.943468,-400.000000,-400.000000,-400.000000,-400.000000,-400.000000,-400.000000,6
37460961,-1.083946,-3.509378,-2.425432,2.296662,0.670743,-2.967405,-400.000000,-400.000000,-400.000000,-400.000000,-400.000000,-400.000000,6
37462958,-1.072979,-3.523254,-2.450275,2.298117,0.688648,-2.986765,-400.000000,-400.000000,-400.000000,-400.000000,-400.000000,-400.000000,6
37464955,-1.082516,-3.524065,-2.441549,2.303290,0.679517,-2.982807,-400.000000,-400.000000,-400.000000,-400.000000,-400.000000,-400.000000,6
37466951,-1.097345,-3.509235,-2.411890,2.303290,0.657272,-2.960563,-400.000000,-400.000000,-400.000000,-400.000000,-400.000000,-400.000000,6
37468949,-1.134682,-3.498459,-2.363777,2.316570,0.614548,-2.931118,-400.000000,-400.000000,-400.000000,-400.000000,-400.000000,-400.000000,6
37470945,-1.163673,-3.486919,-2.323246,2.325296,0.579786,-2.905083,-400.000000,-400.000000,-400.000000,-400.000000,-400.000000,-400.000000,6
37472942,-1.185179,-3.472376,-2.287197,2.328777,0.551009,-2.879786,-400.000000,-400.000000,-400.000000,-400.000000,-400.000000,-400.000000,6
37474938,-1.181746,-3.476858,-2.295113,2.329302,0.556684,-2.885985,-400.000000,-400.000000,-400.000000,-400.000000,-400.000000,-400.000000,6
37476935,-1.151657,-3.480482,-2.328825,2.316070,0.588584,-2.904654,-400.000000,-400.000000,-400.000000,-400.000000,-400.000000,-400.000000,6
37478932,-1.112461,-3.485489,-2.373028,2.298975,0.630283,-2.929258,-400.000000,-400.000000,-400.000000,-400.000000,-400.000000,-400.000000,6
37480928,-1.087093,-3.499031,-2.411938,2.293062,0.662422,-2.955484,-400.000000,-400.000000,-400.000000,-400.000000,-400.000000,-400.000000,6
37482925,-1.089907,-3.517628,-2.427721,2.303767,0.668907,-2.972674,-400.000000,-400.000000,-400.000000,-400.000000,-400.000000,-400.000000,6
37484922,-1.075745,-3.513288,-2.437544,2.294517,0.680900,-2.975416,-400.000000,-400.000000,-400.000000,-400.000000,-400.000000,-400.000000,6
37486919,-1.100588,-3.505087,-2.404499,2.302837,0.651956,-2.954793,-400.000000,-400.000000,-400.000000,-400.000000,-400.000000,-400.000000,6
37488915,-1.135111,-3.499413,-2.364302,2.317262,0.614595,-2.931857,-400.000000,-400.000000,-400.000000,-400.000000,-400.000000,-400.000000,6
37490913,-1.151419,-3.496218,-2.344799,2.323818,0.596690,-2.920508,-400.000000,-400.000000,-400.000000,-400.000000,-400.000000,-400.000000,6
37492909,-1.160669,-3.489304,-2.328634,2.324986,0.583982,-2.908969,-400.000000,-400.000000,-400.000000,-400.000000,-400.000000,-400.000000,6
37494906,-1.170349,-3.480148,-2.309799,2.325249,0.569725,-2.894974,-400.000000,-400.000000,-400.000000,-400.000000,-400.000000,-400.000000,6
37496902,-1.150131,-3.484440,-2.334309,2.317286,0.592089,-2.909374,-400.000000,-400.000000,-400.000000,-400.000000,-400.000000,-400.000000,6
37498899,-1.102543,-3.491545,-2.389002,2.297044,0.643229,-2.940273,-400.000000,-400.000000,-400.000000,-400.000000,-400.000000,-400.000000,6
37500896,-1.073694,-3.499174,-2.425480,2.286434,0.675893,-2.962327,-400.000000,-400.000000,-400.000000,-400.000000,-400.000000,-400.000000,6
37502893,-1.067972,-3.510571,-2.442598,2.289271,0.687313,-2.976584,-400.000000,-400.000000,-400.000000,-400.000000,-400.000000,-400.000000,6
37504889,-1.071072,-3.512478,-2.441406,2.291775,0.685167,-2.976942,-400.000000,-400.000000,-400.000000,-400.000000,-400.000000,-400.000000,6
37506886,-1.109266,-3.515291,-2.406025,2.312279,0.648379,-2.960658,-400.000000,-400.000000,-400.000000,-400.000000,-400.000000,-400.000000,6
37508885,-1.143742,-3.504562,-2.360821,2.324152,0.608540,-2.932692,-400.000000,-400.000000,-400.000000,-400.000000,-400.000000,-400.000000,6
37510879,-1.165295,-3.484821,-2.319527,2.325058,0.577116,-2.902174,-400.000000,-400.000000,-400.000000,-400.000000,-400.000000,-400.000000,6
37512876,-1.175356,-3.461027,-2.285671,2.318192,0.555158,-2.873349,-400.000000,-400.000000,-400.000000,-400.000000,-400.000000,-400.000000,6
37514873,-1.162481,-3.441715,-2.279234,2.302098,0.558376,-2.860475,-400.000000,-400.000000,-400.000000,-400.000000,-400.000000,-400.000000,6
37516869,-1.124573,-3.421021,-2.296448,2.272797,0.585937,-2.858734,-400.000000,-400.000000,-400.000000,-400.000000,-400.000000,-400.000000,6
37518866,-1.079607,-3.398561,-2.318954,2.239084,0.619674,-2.858758,-400.000000,-400.000000,-400.000000,-400.000000,-400.000000,-400.000000,6
37520862,-1.046896,-3.379297,-2.332401,2.213097,0.642753,-2.855849,-400.000000,-400.000000,-400.000000,-400.000000,-400.000000,-400.000000,6
37522859,-1.036501,-3.376532,-2.340031,2.206516,0.651765,-2.858281,-400.000000,-400.000000,-400.000000,-400.000000,-400.000000,-400.000000,6
37524856,-1.033545,-3.365231,-2.331686,2.199388,0.649071,-2.848458,-400.000000,-400.000000,-400.000000,-400.000000,-400.000000,-400.000000,6
37526852,-1.052952,-3.352213,-2.299261,2.202582,0.623155,-2.825737,-400.000000,-400.000000,-400.000000,-400.000000,-400.000000,-400.000000,6
37528850,-1.097250,-3.346777,-2.249527,2.222013,0.576138,-2.798152,-400.000000,-400.000000,-400.000000,-400.000000,-400.000000,-400.000000,6
37530846,-1.128721,-3.344250,-2.215528,2.236485,0.543404,-2.779889,-400.000000,-400.000000,-400.000000,-400.000000,-400.000000,-400.000000,6
37532842,-1.150322,-3.322935,-2.172613,2.236629,0.511146,-2.747774,-400.000000,-400.000000,-400.000000,-400.000000,-400.000000,-400.000000,6
37534839,-1.137304,-3.304815,-2.167511,2.221060,0.515103,-2.736163,-400.000000,-400.000000,-400.000000,-400.000000,-400.000000,-400.000000,6
37536835,-1.105499,-3.294659,-2.189159,2.200079,0.541830,-2.741909,-400.000000,-400.000000,-400.000000,-400.000000,-400.000000,-400.000000,6
37538832,-1.069832,-3.287315,-2.217484,2.178574,0.573826,-2.752399,-400.000000,-400.000000,-400.000000,-400.000000,-400.000000,-400.000000,6
37540829,-1.038408,-3.276587,-2.238178,2.157497,0.599885,-2.757382,-400.000000,-400.000000,-400.000000,-400.000000,-400.000000,-400.000000,6
37542826,-1.014805,-3.264570,-2.249765,2.139688,0.617480,-2.757168,-400.000000,-400.000000,-400.000000,-400.000000,-400.000000,-400.000000,6
37544822,-1.006889,-3.247118,-2.240229,2.127004,0.616670,-2.743673,-400.000000,-400.000000,-400.000000,-400.000000,-400.000000,-400.000000,6
37546819,-1.018620,-3.237629,-2.219009,2.128124,0.600195,-2.728319,-400.000000,-400.000000,-400.000000,-400.000000,-400.000000,-400.000000,6
37548816,-1.045799,-3.218603,-2.172804,2.132201,0.563502,-2.695704,-400.000000,-400.000000,-400.000000,-400.000000,-400.000000,-400.000000,6
37550812,-1.059151,-3.210831,-2.151680,2.134991,0.546265,-2.681255,-400.000000,-400.000000,-400.000000,-400.000000,-400.000000,-400.000000,6
37552809,-1.070118,-3.200054,-2.129936,2.135086,0.529909,-2.664995,-400.000000,-400.000000,-400.000000,-400.000000,-400.000000,-400.000000,6
37554806,-1.075602,-3.215551,-2.139950,2.145576,0.532174,-2.677751,-400.000000,-400.000000,-400.000000,-400.000000,-400.000000,-400.000000,6
37556803,-1.077127,-3.254747,-2.177620,2.165937,0.550246,-2.716184,-400.000000,-400.000000,-400.000000,-400.000000,-400.000000,-400.000000,6
37558799,-1.041698,-3.291988,-2.250290,2.166843,0.604296,-2.771139,-400.000000,-400.000000,-400.000000,-400.000000,-400.000000,-400.000000,6
37560796,-1.009846,-3.314829,-2.304983,2.162337,0.647569,-2.809906,-400.000000,-400.000000,-400.000000,-400.000000,-400.000000,-400.000000,6
37562793,-1.010847,-3.345394,-2.334547,2.178121,0.661850,-2.839971,-400.000000,-400.000000,-400.000000,-400.000000,-400.000000,-400.000000,6
37564790,-1.020241,-3.374577,-2.354336,2.197409,0.667048,-2.864456,-400.000000,-400.000000,-400.000000,-400.000000,-400.000000,-400.000000,6
37566786,-1.034784,-3.391743,-2.356958,2.213264,0.661087,-2.874351,-400.000000,-400.000000,-400.000000,-400.000000,-400.000000,-400.000000,6
37568784,-1.063251,-3.405666,-2.342415,2.234459,0.639582,-2.874041,-400.000000,-400.000000,-400.000000,-400.000000,-400.000000,-400.000000,6
37570780,-1.092005,-3.413820,-2.321815,2.252913,0.614905,-2.867818,-400.000000,-400.000000,-400.000000,-400.000000,-400.000000,-400.000000,6
37572777,-1.126814,-3.418684,-2.291870,2.272749,0.582528,-2.855277,-400.000000,-400.000000,-400.000000,-400.000000,-400.000000,-400.000000,6
37574774,-1.138878,-3.429937,-2.291059,2.284408,0.576091,-2.860498,-400.000000,-400.000000,-400.000000,-400.000000,-400.000000,-400.000000,6
37576770,-1.119709,-3.438282,-2.318573,2.278996,0.599432,-2.878428,-400.000000,-400.000000,-400.000000,-400.000000,-400.000000,-400.000000,6
37578767,-1.085949,-3.449059,-2.363110,2.267504,0.638580,-2.906084,-400.000000,-400.000000,-400.000000,-400.000000,-400.000000,-400.000000,6
37580764,-1.055765,-3.464985,-2.409220,2.260375,0.676727,-2.937102,-400.000000,-400.000000,-400.000000,-400.000000,-400.000000,-400.000000,6
37582760,-1.045465,-3.490400,-2.444935,2.267933,0.699735,-2.967668,-400.000000,-400.000000,-400.000000,-400.000000,-400.000000,-400.000000,6
37584757,-1.045561,-3.504133,-2.458572,2.274847,0.706506,-2.981353,-400.000000,-400.000000,-400.000000,-400.000000,-400.000000,-400.000000,6
37586754,-1.073408,-3.499699,-2.426291,2.286553,0.676441,-2.962995,-400.000000,-400.000000,-400.000000,-400.000000,-400.000000,-400.000000,6
37588750,-1.111078,-3.487682,-2.376604,2.299380,0.632763,-2.932143,-400.000000,-400.000000,-400.000000,-400.000000,-400.000000,-400.000000,6
37590747,-1.130867,-3.478622,-2.347755,2.304745,0.608444,-2.913189,-400.000000,-400.000000,-400.000000,-400.000000,-400.000000,-400.000000,6
37592744,-1.151609,-3.482676,-2.331066,2.317142,0.589728,-2.906871,-400.000000,-400.000000,-400.000000,-400.000000,-400.000000,-400.000000,6
37594741,-1.160669,-3.484535,-2.323866,2.322602,0.581598,-2.904201,-400.000000,-400.000000,-400.000000,-400.000000,-400.000000,-400.000000,6
37596737,-1.142550,-3.485489,-2.342939,2.314019,0.600195,-2.914214,-400.000000,-400.000000,-400.000000,-400.000000,-400.000000,-400.000000,6
37598734,-1.097488,-3.496456,-2.398968,2.296972,0.650740,-2.947712,-400.000000,-400.000000,-400.000000,-400.000000,-400.000000,-400.000000,6
37600732,-1.052523,-3.525829,-2.473307,2.289176,0.710392,-2.999568,-400.000000,-400.000000,-400.000000,-400.000000,-400.000000,-400.000000,6
37602728,-1.047802,-3.540611,-2.492809,2.294207,0.722504,-3.016710,-400.000000,-400.000000,-400.000000,-400.000000,-400.000000,-400.000000,6
37604724,-1.065350,-3.524971,-2.459621,2.295160,0.697136,-2.992296,-400.000000,-400.000000,-400.000000,-400.000000,-400.000000,-400.000000,6
37606721,-1.085234,-3.520155,-2.434921,2.302694,0.674844,-2.977538,-400.000000,-400.000000,-400.000000,-400.000000,-400.000000,-400.000000,6
37608720,-1.117611,-3.514719,-2.397108,2.316165,0.639749,-2.955914,-400.000000,-400.000000,-400.000000,-400.000000,-400.000000,-400.000000,6
37610715,-1.145935,-3.510809,-2.364874,2.328372,0.609469,-2.937841,-400.000000,-400.000000,-400.000000,-400.000000,-400.000000,-400.000000,6
37612711,-1.160717,-3.487444,-2.326727,2.324080,0.583005,-2.907085,-400.000000,-400.000000,-400.000000,-400.000000,-400.000000,-400.000000,6
37614708,-1.155424,-3.481483,-2.326059,2.318454,0.585318,-2.903771,-400.000000,-400.000000,-400.000000,-400.000000,-400.000000,-400.000000,6
37616704,-1.128912,-3.483391,-2.354479,2.306151,0.612783,-2.918935,-400.000000,-400.000000,-400.000000,-400.000000,-400.000000,-400.000000,6
37618701,-1.088667,-3.489780,-2.401114,2.289224,0.656223,-2.945447,-400.000000,-400.000000,-400.000000,-400.000000,-400.000000,-400.000000,6
37620698,-1.064634,-3.498411,-2.433777,2.281523,0.684571,-2.966094,-400.000000,-400.000000,-400.000000,-400.000000,-400.000000,-400.000000,6
37622695,-1.059341,-3.519821,-2.460480,2.289581,0.700569,-2.990150,-400.000000,-400.000000,-400.000000,-400.000000,-400.000000,-400.000000,6
37624691,-1.057673,-3.529739,-2.472067,2.293706,0.707197,-3.000903,-400.000000,-400.000000,-400.000000,-400.000000,-400.000000,-400.000000,6
37626688,-1.072264,-3.528547,-2.456284,2.300406,0.692010,-2.992415,-400.000000,-400.000000,-400.000000,-400.000000,-400.000000,-400.000000,6
37628685,-1.108837,-3.526258,-2.417421,2.317548,0.654292,-2.971840,-400.000000,-400.000000,-400.000000,-400.000000,-400.000000,-400.000000,6
37630682,-1.135206,-3.521872,-2.386665,2.328539,0.625730,-2.954268,-400.000000,-400.000000,-400.000000,-400.000000,-400.000000,-400.000000,6
37632678,-1.162004,-3.506851,-2.344847,2.334428,0.591421,-2.925849,-400.000000,-400.000000,-400.000000,-400.000000,-400.000000,-400.000000,6
37634675,-1.171446,-3.502083,-2.330637,2.336764,0.579596,-2.916360,-400.000000,-400.000000,-400.000000,-400.000000,-400.000000,-400.000000,6
37636672,-1.149130,-3.486443,-2.337313,2.317786,0.594091,-2.911878,-400.000000,-400.000000,-400.000000,-400.000000,-400.000000,-400.000000,6
37638668,-1.114702,-3.469610,-2.354908,2.292156,0.620103,-2.912259,-400.000000,-400.000000,-400.000000,-400.000000,-400.000000,-400.000000,6
37640665,-1.093102,-3.461790,-2.368689,2.277446,0.637794,-2.915239,-400.000000,-400.000000,-400.000000,-400.000000,-400.000000,-400.000000,6
37642662,-1.098585,-3.452349,-2.353764,2.275467,0.627589,-2.903056,-400.000000,-400.000000,-400.000000,-400.000000,-400.000000,-400.000000,6
37644658,-1.115513,-3.433800,-2.318287,2.274656,0.601387,-2.876043,-400.000000,-400.000000,-400.000000,-400.000000,-400.000000,-400.000000,6
37646655,-1.137114,-3.401947,-2.264833,2.269530,0.563860,-2.833390,-400.000000,-400.000000,-400.000000,-400.000000,-400.000000,-400.000000,6
37648652,-1.153564,-3.365564,-2.212000,2.259564,0.529218,-2.788782,-400.000000,-400.000000,-400.000000,-400.000000,-400.000000,-400.000000,6
37650649,-1.155949,-3.337574,-2.181625,2.246761,0.512838,-2.759600,-400.000000,-400.000000,-400.000000,-400.000000,-400.000000,-400.000000,6
37652645,-1.161766,-3.270245,-2.108479,2.216005,0.473356,-2.689362,-400.000000,-400.000000,-400.000000,-400.000000,-400.000000,-400.000000,6
37654642,-1.137924,-3.185415,-2.047491,2.161670,0.454783,-2.616453,-400.000000,-400.000000,-400.000000,-400.000000,-400.000000,-400.000000,6
37656639,-1.068878,-3.101730,-2.032852,2.085304,0.481987,-2.567291,-400.000000,-400.000000,-400.000000,-400.000000,-400.000000,-400.000000,6
37658635,-0.982618,-3.023577,-2.040958,2.003098,0.529170,-2.532268,-400.000000,-400.000000,-400.000000,-400.000000,-400.000000,-400.000000,6
37660632,-0.908422,-2.971268,-2.062845,1.939845,0.577211,-2.517056,-400.000000,-400.000000,-400.000000,-400.000000,-400.000000,-400.000000,6
37662629,-0.829172,-2.913666,-2.084494,1.871419,0.627661,-2.499080,-400.000000,-400.000000,-400.000000,-400.000000,-400.000000,-400.000000,6
37664625,-0.752640,-2.868795,-2.116156,1.810718,0.681758,-2.492476,-400.000000,-400.000000,-400.000000,-400.000000,-400.000000,-400.000000,6
37666622,-0.692511,-2.805424,-2.112913,1.748967,0.710201,-2.459168,-400.000000,-400.000000,-400.000000,-400.000000,-400.000000,-400.000000,6
37668620,-0.678110,-2.719259,-2.041149,1.698685,0.681520,-2.380204,-400.000000,-400.000000,-400.000000,-400.000000,-400.000000,-400.000000,6
37670615,-0.655937,-2.605534,-1.949596,1.630735,0.646830,-2.277565,-400.000000,-400.000000,-400.000000,-400.000000,-400.000000,-400.000000,6
37672612,-0.653887,-2.483368,-1.829481,1.568627,0.587797,-2.156425,-400.000000,-400.000000,-400.000000,-400.000000,-400.000000,-400.000000,6
37674608,-0.631762,-2.492332,-1.860571,1.562047,0.614405,-2.176452,-400.000000,-400.000000,-400.000000,-400.000000,-400.000000,-400.000000,6
37676605,-0.586605,-2.668095,-2.081490,1.627350,0.747442,-2.374792,-400.000000,-400.000000,-400.000000,-400.000000,-400.000000,-400.000000,6
37678602,-0.568247,-2.932453,-2.364206,1.750350,0.897980,-2.648330,-400.000000,-400.000000,-400.000000,-400.000000,-400.000000,-400.000000,6
37680598,-0.564480,-3.191423,-2.626944,1.877952,1.031232,-2.909184,-400.000000,-400.000000,-400.000000,-400.000000,-400.000000,-400.000000,6
37682595,-0.566196,-3.431940,-2.865744,1.999068,1.149774,-3.148842,-400.000000,-400.000000,-400.000000,-400.000000,-400.000000,-400.000000,6
37684592,-0.619411,-3.692389,-3.072977,2.155900,1.226783,-3.382683,-400.000000,-400.000000,-400.000000,-400.000000,-400.000000,-400.000000,6
37686588,-0.737667,-3.976679,-3.239012,2.357173,1.250672,-3.607845,-400.000000,-400.000000,-400.000000,-400.000000,-400.000000,-400.000000,6
37688585,-0.858402,-4.148960,-3.290558,2.503681,1.216078,-3.719759,-400.000000,-400.000000,-400.000000,-400.000000,-400.000000,-400.000000,6
37690582,-0.947285,-4.228878,-3.281593,2.588081,1.167154,-3.755236,-400.000000,-400.000000,-400.000000,-400.000000,-400.000000,-400.000000,6
37692578,-0.984621,-4.232025,-3.247404,2.608323,1.131392,-3.739715,-400.000000,-400.000000,-400.000000,-400.000000,-400.000000,-400.000000,6
37694575,-1.048422,-4.227448,-3.179026,2.637935,1.065302,-3.703237,-400.000000,-400.000000,-400.000000,-400.000000,-400.000000,-400.000000,6
37696572,-1.060677,-4.177999,-3.117323,2.619338,1.028323,-3.647661,-400.000000,-400.000000,-400.000000,-400.000000,-400.000000,-400.000000,6
37698569,-1.024294,-4.122591,-3.098297,2.573442,1.037002,-3.610444,-400.000000,-400.000000,-400.000000,-400.000000,-400.000000,-400.000000,6
37700565,-1.009989,-4.058838,-3.048849,2.534413,1.019430,-3.553843,-400.000000,-400.000000,-400.000000,-400.000000,-400.000000,-400.000000,6
37702562,-1.007128,-4.004574,-2.997446,2.505851,0.995159,-3.501010,-400.000000,-400.000000,-400.000000,-400.000000,-400.000000,-400.000000,6
37704558,-0.986910,-3.938770,-2.951860,2.462840,0.982475,-3.445315,-400.000000,-400.000000,-400.000000,-400.000000,-400.000000,-400.000000,6
37706555,-1.004410,-3.859043,-2.854633,2.431726,0.925112,-3.356838,-400.000000,-400.000000,-400.000000,-400.000000,-400.000000,-400.000000,6
37708554,-1.052475,-3.788948,-2.736473,2.420712,0.841999,-3.262711,-400.000000,-400.000000,-400.000000,-400.000000,-400.000000,-400.000000,6
37710549,-1.081181,-3.738499,-2.657318,2.409840,0.788069,-3.197908,-400.000000,-400.000000,-400.000000,-400.000000,-400.000000,-400.000000,6
37712545,-1.102352,-3.666353,-2.564001,2.384353,0.730824,-3.115177,-400.000000,-400.000000,-400.000000,-400.000000,-400.000000,-400.000000,6
37714542,-1.109982,-3.628635,-2.518654,2.369308,0.704336,-3.073645,-400.000000,-400.000000,-400.000000,-400.000000,-400.000000,-400.000000,6
37716538,-1.096344,-3.609467,-2.513123,2.352905,0.708389,-3.061295,-400.000000,-400.000000,-400.000000,-400.000000,-400.000000,-400.000000,6
37718535,-1.061344,-3.598070,-2.536726,2.329707,0.737691,-3.067398,-400.000000,-400.000000,-400.000000,-400.000000,-400.000000,-400.000000,6
37720531,-1.039314,-3.587437,-2.548122,2.313375,0.754404,-3.067780,-400.000000,-400.000000,-400.000000,-400.000000,-400.000000,-400.000000,6
37722528,-1.030159,-3.581285,-2.551126,2.305722,0.760484,-3.066206,-400.000000,-400.000000,-400.000000,-400.000000,-400.000000,-400.000000,6
37724524,-1.042223,-3.574705,-2.532482,2.308464,0.745130,-3.053594,-400.000000,-400.000000,-400.000000,-400.000000,-400.000000,-400.000000,6
37726521,-1.066399,-3.569221,-2.502823,2.317810,0.718212,-3.036022,-400.000000,-400.000000,-400.000000,-400.000000,-400.000000,-400.000000,6
37728518,-1.097012,-3.562260,-2.465248,2.329636,0.684118,-3.013754,-400.000000,-400.000000,-400.000000,-400.000000,-400.000000,-400.000000,6
37730514,-1.128531,-3.546238,-2.417707,2.337384,0.644588,-2.981973,-400.000000,-400.000000,-400.000000,-400.000000,-400.000000,-400.000000,6
37732511,-1.145792,-3.515959,-2.370167,2.330875,0.612187,-2.943063,-400.000000,-400.000000,-400.000000,-400.000000,-400.000000,-400.000000,6
37734507,-1.147604,-3.498650,-2.351046,2.323127,0.601721,-2.924848,-400.000000,-400.000000,-400.000000,-400.000000,-400.000000,-400.000000,6
37736504,-1.127672,-3.494215,-2.366543,2.310944,0.619435,-2.930379,-400.000000,-400.000000,-400.000000,-400.000000,-400.000000,-400.000000,6
37738501,-1.091766,-3.498745,-2.406979,2.295256,0.657606,-2.952862,-400.000000,-400.000000,-400.000000,-400.000000,-400.000000,-400.000000,6
37740497,-1.056528,-3.505468,-2.448940,2.280998,0.696206,-2.977204,-400.000000,-400.000000,-400.000000,-400.000000,-400.000000,-400.000000,6
37742494,-1.035023,-3.512907,-2.477884,2.273965,0.721431,-2.995396,-400.000000,-400.000000,-400.000000,-400.000000,-400.000000,-400.000000,6
37744490,-1.028681,-3.507042,-2.478361,2.267861,0.724840,-2.992702,-400.000000,-400.000000,-400.000000,-400.000000,-400.000000,-400.000000,6
37746487,-1.059008,-3.507376,-2.448368,2.283192,0.694680,-2.977872,-400.000000,-400.000000,-400.000000,-400.000000,-400.000000,-400.000000,6
37748484,-1.099634,-3.505039,-2.405405,2.302337,0.652885,-2.955222,-400.000000,-400.000000,-400.000000,-400.000000,-400.000000,-400.000000,6
37750480,-1.128769,-3.492546,-2.363777,2.310658,0.617504,-2.928162,-400.000000,-400.000000,-400.000000,-400.000000,-400.000000,-400.000000,6
37752477,-1.149940,-3.472614,-2.322674,2.311277,0.586367,-2.897644,-400.000000,-400.000000,-400.000000,-400.000000,-400.000000,-400.000000,6
37754474,-1.150084,-3.468370,-2.318287,2.309227,0.584102,-2.893329,-400.000000,-400.000000,-400.000000,-400.000000,-400.000000,-400.000000,6
37756470,-1.127672,-3.464890,-2.337217,2.296281,0.604773,-2.901053,-400.000000,-400.000000,-400.000000,-400.000000,-400.000000,-400.000000,6
37758467,-1.094532,-3.471899,-2.377367,2.283216,0.641418,-2.924633,-400.000000,-400.000000,-400.000000,-400.000000,-400.000000,-400.000000,6
37760464,-1.056480,-3.469563,-2.413082,2.263021,0.678301,-2.941322,-400.000000,-400.000000,-400.000000,-400.000000,-400.000000,-400.000000,6
37762460,-1.039648,-3.481913,-2.442265,2.260780,0.701308,-2.962089,-400.000000,-400.000000,-400.000000,-400.000000,-400.000000,-400.000000,6
37764457,-1.031208,-3.491020,-2.459812,2.261114,0.714302,-2.975416,-400.000000,-400.000000,-400.000000,-400.000000,-400.000000,-400.000000,6
37766453,-1.055813,-3.488111,-2.432299,2.271962,0.688243,-2.960205,-400.000000,-400.000000,-400.000000,-400.000000,-400.000000,-400.000000,6
37768451,-1.086235,-3.474808,-2.388573,2.280521,0.651169,-2.931690,-400.000000,-400.000000,-400.000000,-400.000000,-400.000000,-400.000000,6
37770447,-1.111841,-3.470135,-2.358294,2.290988,0.623226,-2.914214,-400.000000,-400.000000,-400.000000,-400.000000,-400.000000,-400.000000,6
37772444,-1.126671,-3.468847,-2.342176,2.297759,0.607753,-2.905512,-400.000000,-400.000000,-400.000000,-400.000000,-400.000000,-400.000000,6
37774440,-1.125574,-3.455257,-2.329683,2.290416,0.602055,-2.892470,-400.000000,-400.000000,-400.000000,-400.000000,-400.000000,-400.000000,6
37776437,-1.105261,-3.445053,-2.339792,2.275157,0.617266,-2.892423,-400.000000,-400.000000,-400.000000,-400.000000,-400.000000,-400.000000,6
37778433,-1.064634,-3.444290,-2.379656,2.254462,0.657511,-2.911973,-400.000000,-400.000000,-400.000000,-400.000000,-400.000000,-400.000000,6
37780430,-1.028252,-3.444147,-2.415895,2.236199,0.693822,-2.930021,-400.000000,-400.000000,-400.000000,-400.000000,-400.000000,-400.000000,6
37782427,-1.007175,-3.448772,-2.441597,2.227974,0.717211,-2.945185,-400.000000,-400.000000,-400.000000,-400.000000,-400.000000,-400.000000,6
37784423,-1.009560,-3.453922,-2.444363,2.231741,0.717402,-2.949142,-400.000000,-400.000000,-400.000000,-400.000000,-400.000000,-400.000000,6
37786420,-1.034307,-3.458357,-2.424049,2.246332,0.694871,-2.941203,-400.000000,-400.000000,-400.000000,-400.000000,-400.000000,-400.000000,6
37788417,-1.076937,-3.453159,-2.376223,2.265048,0.649643,-2.914691,-400.000000,-400.000000,-400.000000,-400.000000,-400.000000,-400.000000,6
37790413,-1.111221,-3.457737,-2.346516,2.284479,0.617647,-2.902126,-400.000000,-400.000000,-400.000000,-400.000000,-400.000000,-400.000000,6
37792410,-1.114559,-3.452015,-2.337456,2.283287,0.611448,-2.894735,-400.000000,-400.000000,-400.000000,-400.000000,-400.000000,-400.000000,6
37794406,-1.119518,-3.438663,-2.319145,2.279091,0.599813,-2.878904,-400.000000,-400.000000,-400.000000,-400.000000,-400.000000,-400.000000,6
37796403,-1.093197,-3.436613,-2.343416,2.264905,0.625110,-2.890015,-400.000000,-400.000000,-400.000000,-400.000000,-400.000000,-400.000000,6
37798400,-1.041222,-3.431034,-2.389812,2.236128,0.674295,-2.910423,-400.000000,-400.000000,-400.000000,-400.000000,-400.000000,-400.000000,6
37800396,-0.993776,-3.444958,-2.451181,2.219367,0.728703,-2.948070,-400.000000,-400.000000,-400.000000,-400.000000,-400.000000,-400.000000,6
37802393,-0.996780,-3.455019,-2.458239,2.225900,0.730729,-2.956629,-400.000000,-400.000000,-400.000000,-400.000000,-400.000000,-400.000000,6
37804390,-1.001883,-3.449202,-2.447319,2.225542,0.722718,-2.948260,-400.000000,-400.000000,-400.000000,-400.000000,-400.000000,-400.000000,6
37806386,-1.014853,-3.445721,-2.430868,2.230287,0.708008,-2.938294,-400.000000,-400.000000,-400.000000,-400.000000,-400.000000,-400.000000,6
