timestamp_us,I_mV,II_mV,III_mV,aVR_mV,aVL_mV,aVF_mV,V1_mV,V2_mV,V3_mV,V4_mV,V5_mV,V6_mV,gain
748316095,0.292587,-10.575867,-10.868454,5.141640,5.580521,-10.722160,-800.000000,-800.000000,-800.000000,-800.000000,-800.000000,-800.000000,3
748318091,0.290966,-10.682201,-10.973167,5.195618,5.632067,-10.827684,-800.000000,-800.000000,-800.000000,-800.000000,-800.000000,-800.000000,3
748320089,0.251102,-10.474586,-10.725689,5.111742,5.488396,-10.600138,-800.000000,-800.000000,-800.000000,-800.000000,-800.000000,-800.000000,3
748322087,0.209618,-10.273838,-10.483456,5.032110,5.346537,-10.378647,-800.000000,-800.000000,-800.000000,-800.000000,-800.000000,-800.000000,3
748324085,0.157642,-10.117722,-10.275364,4.980040,5.216503,-10.196543,-800.000000,-800.000000,-800.000000,-800.000000,-800.000000,-800.000000,3
748326083,0.120926,-9.783554,-9.904480,4.831314,5.012703,-9.844017,-800.000000,-800.000000,-800.000000,-800.000000,-800.000000,-800.000000,3
748328080,0.109386,-9.556770,-9.666157,4.723692,4.887772,-9.611464,-800.000000,-800.000000,-800.000000,-800.000000,-800.000000,-800.000000,3
748330078,0.112629,-9.632492,-9.745121,4.759932,4.928875,-9.688807,-800.000000,-800.000000,-800.000000,-800.000000,-800.000000,-800.000000,3
748332076,0.132179,-9.702396,-9.834576,4.785109,4.983377,-9.768486,-800.000000,-800.000000,-800.000000,-800.000000,-800.000000,-800.000000,3
748334074,0.168419,-9.741688,-9.910107,4.786634,5.039263,-9.825897,-800.000000,-800.000000,-800.000000,-800.000000,-800.000000,-800.000000,3
748336071,0.202465,-9.962368,-10.164833,4.879951,5.183649,-10.063601,-800.000000,-800.000000,-800.000000,-800.000000,-800.000000,-800.000000,3
748338069,0.229740,-10.061836,-10.291576,4.916048,5.260658,-10.176706,-800.000000,-800.000000,-800.000000,-800.000000,-800.000000,-800.000000,3
748340067,0.218773,-9.874725,-10.093498,4.827976,5.156136,-9.984112,-800.000000,-800.000000,-800.000000,-800.000000,-800.000000,-800.000000,3
748342065,0.177193,-9.714985,-9.892178,4.768896,5.034685,-9.803581,-800.000000,-800.000000,-800.000000,-800.000000,-800.000000,-800.000000,3
748344062,0.131035,-9.599304,-9.730339,4.734135,4.930687,-9.664822,-800.000000,-800.000000,-800.000000,-800.000000,-800.000000,-800.000000,3
748346060,0.097084,-9.320641,-9.417725,4.611778,4.757404,-9.369183,-800.000000,-800.000000,-800.000000,-800.000000,-800.000000,-800.000000,3
748348058,0.075245,-9.184551,-9.259796,4.554653,4.667521,-9.222174,-800.000000,-800.000000,-800.000000,-800.000000,-800.000000,-800.000000,3
748350056,0.064850,-9.340382,-9.405231,4.637766,4.735041,-9.372807,-800.000000,-800.000000,-800.000000,-800.000000,-800.000000,-800.000000,3
748352054,0.085163,-9.466267,-9.551430,4.690552,4.818296,-9.508848,-800.000000,-800.000000,-800.000000,-800.000000,-800.000000,-800.000000,3
748354052,0.123024,-9.559155,-9.682178,4.718065,4.902601,-9.620667,-800.000000,-800.000000,-800.000000,-800.000000,-800.000000,-800.000000,3
748356052,0.160313,-9.842205,-10.002518,4.840946,5.081415,-9.922361,-800.000000,-800.000000,-800.000000,-800.000000,-800.000000,-800.000000,3
748358048,0.180340,-9.962749,-10.143089,4.891205,5.161715,-10.052919,-800.000000,-800.000000,-800.000000,-800.000000,-800.000000,-800.000000,3
748360045,0.181866,-9.792805,-9.974670,4.805470,5.078268,-9.883738,-800.000000,-800.000000,-800.000000,-800.000000,-800.000000,-800.000000,3
748362043,0.157738,-9.650898,-9.808636,4.746580,4.983187,-9.729767,-800.000000,-800.000000,-800.000000,-800.000000,-800.000000,-800.000000,3
748364041,0.115299,-9.561443,-9.676743,4.723072,4.896021,-9.619093,-800.000000,-800.000000,-800.000000,-800.000000,-800.000000,-800.000000,3
748366039,0.096703,-9.294510,-9.391212,4.598904,4.743958,-9.342861,-800.000000,-800.000000,-800.000000,-800.000000,-800.000000,-800.000000,3
748368037,0.070953,-9.135818,-9.206772,4.532433,4.638863,-9.171295,-800.000000,-800.000000,-800.000000,-800.000000,-800.000000,-800.000000,3
748370035,0.073051,-9.293461,-9.366512,4.610205,4.719782,-9.329987,-800.000000,-800.000000,-800.000000,-800.000000,-800.000000,-800.000000,3
748372032,0.097656,-9.432220,-9.529877,4.667282,4.813766,-9.481049,-800.000000,-800.000000,-800.000000,-800.000000,-800.000000,-800.000000,3
748374031,0.123405,-9.535122,-9.658527,4.705858,4.890966,-9.596825,-800.000000,-800.000000,-800.000000,-800.000000,-800.000000,-800.000000,3
748376028,0.140285,-9.812546,-9.952831,4.836130,5.046558,-9.882689,-800.000000,-800.000000,-800.000000,-800.000000,-800.000000,-800.000000,3
748378026,0.172043,-9.947300,-10.119343,4.887629,5.145693,-10.033321,-800.000000,-800.000000,-800.000000,-800.000000,-800.000000,-800.000000,3
748380025,0.174809,-9.776020,-9.950829,4.800606,5.062819,-9.863424,-800.000000,-800.000000,-800.000000,-800.000000,-800.000000,-800.000000,3
748382022,0.155163,-9.628677,-9.783840,4.736757,4.969501,-9.706259,-800.000000,-800.000000,-800.000000,-800.000000,-800.000000,-800.000000,3
748384019,0.110912,-9.532738,-9.643650,4.710913,4.877281,-9.588194,-800.000000,-800.000000,-800.000000,-800.000000,-800.000000,-800.000000,3
748386017,0.080109,-9.270763,-9.350872,4.595327,4.715490,-9.310818,-800.000000,-800.000000,-800.000000,-800.000000,-800.000000,-800.000000,3
748388015,0.056076,-9.126854,-9.182930,4.535389,4.619503,-9.154892,-800.000000,-800.000000,-800.000000,-800.000000,-800.000000,-800.000000,3
748390013,0.063419,-9.275627,-9.339046,4.606104,4.701233,-9.307337,-800.000000,-800.000000,-800.000000,-800.000000,-800.000000,-800.000000,3
748392011,0.098991,-9.404850,-9.503841,4.652929,4.801416,-9.454346,-800.000000,-800.000000,-800.000000,-800.000000,-800.000000,-800.000000,3
748394008,0.148392,-9.494686,-9.643078,4.673147,4.895735,-9.568882,-800.000000,-800.000000,-800.000000,-800.000000,-800.000000,-800.000000,3
748396006,0.171947,-9.773636,-9.945583,4.800844,5.058765,-9.859610,-800.000000,-800.000000,-800.000000,-800.000000,-800.000000,-800.000000,3
748398004,0.191498,-9.932232,-10.123730,4.870367,5.157614,-10.027981,-800.000000,-800.000000,-800.000000,-800.000000,-800.000000,-800.000000,3
748400002,0.196457,-9.757710,-9.954166,4.780626,5.075312,-9.855938,-800.000000,-800.000000,-800.000000,-800.000000,-800.000000,-800.000000,3
748402000,0.175476,-9.610367,-9.785843,4.717445,4.980659,-9.698105,-800.000000,-800.000000,-800.000000,-800.000000,-800.000000,-800.000000,3
748403997,0.135422,-9.514236,-9.649658,4.689407,4.892540,-9.581947,-800.000000,-800.000000,-800.000000,-800.000000,-800.000000,-800.000000,3
748405995,0.102997,-9.246731,-9.349728,4.571867,4.726362,-9.298229,-800.000000,-800.000000,-800.000000,-800.000000,-800.000000,-800.000000,3
748407993,0.076580,-9.098244,-9.174824,4.510832,4.625702,-9.136534,-800.000000,-800.000000,-800.000000,-800.000000,-800.000000,-800.000000,3
748409991,0.074100,-9.254169,-9.328270,4.590034,4.701185,-9.291220,-800.000000,-800.000000,-800.000000,-800.000000,-800.000000,-800.000000,3
748411989,0.097370,-9.388924,-9.486294,4.645777,4.791832,-9.437609,-800.000000,-800.000000,-800.000000,-800.000000,-800.000000,-800.000000,3
748413987,0.140858,-9.477901,-9.618759,4.668522,4.879808,-9.548330,-800.000000,-800.000000,-800.000000,-800.000000,-800.000000,-800.000000,3
748415986,0.183392,-9.743118,-9.926510,4.779863,5.054951,-9.834814,-800.000000,-800.000000,-800.000000,-800.000000,-800.000000,-800.000000,3
748417982,0.214195,-9.894562,-10.108757,4.840183,5.161476,-10.001659,-800.000000,-800.000000,-800.000000,-800.000000,-800.000000,-800.000000,3
748419980,0.219440,-9.728527,-9.947968,4.754543,5.083704,-9.838247,-800.000000,-800.000000,-800.000000,-800.000000,-800.000000,-800.000000,3
748421978,0.195217,-9.589767,-9.784985,4.697275,4.990101,-9.687376,-800.000000,-800.000000,-800.000000,-800.000000,-800.000000,-800.000000,3
748423976,0.164604,-9.487152,-9.651756,4.661274,4.908180,-9.569454,-800.000000,-800.000000,-800.000000,-800.000000,-800.000000,-800.000000,3
748425973,0.137329,-9.219074,-9.356403,4.540873,4.746866,-9.287739,-800.000000,-800.000000,-800.000000,-800.000000,-800.000000,-800.000000,3
748427971,0.097370,-9.079552,-9.176922,4.491091,4.637146,-9.128237,-800.000000,-800.000000,-800.000000,-800.000000,-800.000000,-800.000000,3
748429969,0.084496,-9.244537,-9.329033,4.580021,4.706764,-9.286785,-800.000000,-800.000000,-800.000000,-800.000000,-800.000000,-800.000000,3
748431967,0.114822,-9.373283,-9.488106,4.629230,4.801464,-9.430695,-800.000000,-800.000000,-800.000000,-800.000000,-800.000000,-800.000000,3
748433964,0.154591,-9.458160,-9.612751,4.651785,4.883671,-9.535456,-800.000000,-800.000000,-800.000000,-800.000000,-800.000000,-800.000000,3
748435962,0.193214,-9.723949,-9.917164,4.765368,5.055189,-9.820557,-800.000000,-800.000000,-800.000000,-800.000000,-800.000000,-800.000000,3
748437960,0.229645,-9.874439,-10.104084,4.822397,5.166864,-9.989262,-800.000000,-800.000000,-800.000000,-800.000000,-800.000000,-800.000000,3
748439958,0.234032,-9.695721,-9.929752,4.730844,5.081892,-9.812737,-800.000000,-800.000000,-800.000000,-800.000000,-800.000000,-800.000000,3
748441956,0.216389,-9.550953,-9.767342,4.667282,4.991865,-9.659147,-800.000000,-800.000000,-800.000000,-800.000000,-800.000000,-800.000000,3
748443953,0.181103,-9.452820,-9.633923,4.635859,4.907513,-9.543371,-800.000000,-800.000000,-800.000000,-800.000000,-800.000000,-800.000000,3
748445951,0.150013,-9.193325,-9.343338,4.521656,4.746675,-9.268332,-800.000000,-800.000000,-800.000000,-800.000000,-800.000000,-800.000000,3
748447949,0.128365,-9.042454,-9.170818,4.457045,4.649591,-9.106636,-800.000000,-800.000000,-800.000000,-800.000000,-800.000000,-800.000000,3
748449947,0.132561,-9.198856,-9.331417,4.533148,4.731989,-9.265137,-800.000000,-800.000000,-800.000000,-800.000000,-800.000000,-800.000000,3
748451945,0.153065,-9.339428,-9.492493,4.593182,4.822779,-9.415960,-800.000000,-800.000000,-800.000000,-800.000000,-800.000000,-800.000000,3
748453943,0.188732,-9.429646,-9.618378,4.620457,4.903555,-9.524012,-800.000000,-800.000000,-800.000000,-800.000000,-800.000000,-800.000000,3
748455943,0.229263,-9.685612,-9.914875,4.728174,5.072069,-9.800243,-800.000000,-800.000000,-800.000000,-800.000000,-800.000000,-800.000000,3
748457938,0.265121,-9.830856,-10.095978,4.782867,5.180550,-9.963417,-800.000000,-800.000000,-800.000000,-800.000000,-800.000000,-800.000000,3
748459936,0.267315,-9.681129,-9.948444,4.706907,5.107880,-9.814787,-800.000000,-800.000000,-800.000000,-800.000000,-800.000000,-800.000000,3
748461934,0.238514,-9.560966,-9.799480,4.661226,5.018997,-9.680223,-800.000000,-800.000000,-800.000000,-800.000000,-800.000000,-800.000000,3
748463932,0.192547,-9.445381,-9.637928,4.626417,4.915237,-9.541655,-800.000000,-800.000000,-800.000000,-800.000000,-800.000000,-800.000000,3
748465930,0.174332,-9.182739,-9.357071,4.504204,4.765701,-9.269905,-800.000000,-800.000000,-800.000000,-800.000000,-800.000000,-800.000000,3
748467931,0.160122,-9.024143,-9.184265,4.432011,4.672194,-9.104204,-800.000000,-800.000000,-800.000000,-800.000000,-800.000000,-800.000000,3
748469926,0.165558,-9.178829,-9.344387,4.506636,4.754972,-9.261608,-800.000000,-800.000000,-800.000000,-800.000000,-800.000000,-800.000000,3
748471923,0.193787,-9.306812,-9.500599,4.556513,4.847193,-9.403706,-800.000000,-800.000000,-800.000000,-800.000000,-800.000000,-800.000000,3
748473921,0.239754,-9.388351,-9.628105,4.574299,4.933929,-9.508228,-800.000000,-800.000000,-800.000000,-800.000000,-800.000000,-800.000000,3
748475919,0.269985,-9.650707,-9.920692,4.690361,5.095339,-9.785700,-800.000000,-800.000000,-800.000000,-800.000000,-800.000000,-800.000000,3
748477917,0.300121,-9.819126,-10.119247,4.759502,5.209684,-9.969187,-800.000000,-800.000000,-800.000000,-800.000000,-800.000000,-800.000000,3
748479914,0.305748,-9.650803,-9.956551,4.672527,5.131149,-9.803677,-800.000000,-800.000000,-800.000000,-800.000000,-800.000000,-800.000000,3
748481912,0.283813,-9.501934,-9.785748,4.609060,5.034781,-9.643841,-800.000000,-800.000000,-800.000000,-800.000000,-800.000000,-800.000000,3
748483910,0.249195,-9.405231,-9.654427,4.578018,4.951811,-9.529829,-800.000000,-800.000000,-800.000000,-800.000000,-800.000000,-800.000000,3
748485907,0.229454,-9.147263,-9.376717,4.458904,4.803085,-9.261990,-800.000000,-800.000000,-800.000000,-800.000000,-800.000000,-800.000000,3
748487905,0.215149,-8.996964,-9.212112,4.390907,4.713631,-9.104538,-800.000000,-800.000000,-800.000000,-800.000000,-800.000000,-800.000000,3
748489903,0.207424,-9.159660,-9.367085,4.476118,4.787254,-9.263372,-800.000000,-800.000000,-800.000000,-800.000000,-800.000000,-800.000000,3
748491901,0.230408,-9.302330,-9.532738,4.535961,4.881573,-9.417534,-800.000000,-800.000000,-800.000000,-800.000000,-800.000000,-800.000000,3
748493899,0.262928,-9.394169,-9.657097,4.565620,4.960012,-9.525633,-800.000000,-800.000000,-800.000000,-800.000000,-800.000000,-800.000000,3
748495897,0.299740,-9.652805,-9.952545,4.676533,5.126143,-9.802675,-800.000000,-800.000000,-800.000000,-800.000000,-800.000000,-800.000000,3
748497895,0.330830,-9.826565,-10.157394,4.747868,5.244112,-9.991980,-800.000000,-800.000000,-800.000000,-800.000000,-800.000000,-800.000000,3
748499892,0.334072,-9.656525,-9.990597,4.661226,5.162334,-9.823561,-800.000000,-800.000000,-800.000000,-800.000000,-800.000000,-800.000000,3
748501890,0.307846,-9.502125,-9.809971,4.597139,5.058908,-9.656048,-800.000000,-800.000000,-800.000000,-800.000000,-800.000000,-800.000000,3
748503888,0.265408,-9.410572,-9.675980,4.572582,4.970694,-9.543276,-800.000000,-800.000000,-800.000000,-800.000000,-800.000000,-800.000000,3
748505886,0.250149,-9.154034,-9.404182,4.451942,4.827166,-9.279108,-800.000000,-800.000000,-800.000000,-800.000000,-800.000000,-800.000000,3
748507884,0.230885,-8.993244,-9.224129,4.381180,4.727507,-9.108686,-800.000000,-800.000000,-800.000000,-800.000000,-800.000000,-800.000000,3
748509881,0.217819,-9.149456,-9.367275,4.465818,4.792547,-9.258366,-800.000000,-800.000000,-800.000000,-800.000000,-800.000000,-800.000000,3
748511880,0.238514,-9.298134,-9.536648,4.529810,4.887581,-9.417391,-800.000000,-800.000000,-800.000000,-800.000000,-800.000000,-800.000000,3
748513877,0.280952,-9.375954,-9.656906,4.547501,4.968929,-9.516430,-800.000000,-800.000000,-800.000000,-800.000000,-800.000000,-800.000000,3
748515876,0.309086,-9.631252,-9.940338,4.661083,5.124712,-9.785795,-800.000000,-800.000000,-800.000000,-800.000000,-800.000000,-800.000000,3
748517873,0.334644,-9.809494,-10.144138,4.737425,5.239391,-9.976816,-800.000000,-800.000000,-800.000000,-800.000000,-800.000000,-800.000000,3
748519870,0.329304,-9.640694,-9.969997,4.655695,5.149651,-9.805346,-800.000000,-800.000000,-800.000000,-800.000000,-800.000000,-800.000000,3
748521868,0.310040,-9.486294,-9.796333,4.588127,5.053186,-9.641314,-800.000000,-800.000000,-800.000000,-800.000000,-800.000000,-800.000000,3
748523866,0.267506,-9.392357,-9.659863,4.562426,4.963684,-9.526110,-800.000000,-800.000000,-800.000000,-800.000000,-800.000000,-800.000000,3
748525864,0.222969,-9.140205,-9.363174,4.458618,4.793072,-9.251690,-800.000000,-800.000000,-800.000000,-800.000000,-800.000000,-800.000000,3
748527862,0.184917,-8.988190,-9.173107,4.401636,4.679012,-9.080648,-800.000000,-800.000000,-800.000000,-800.000000,-800.000000,-800.000000,3
748529859,0.178242,-9.145546,-9.323788,4.483652,4.751015,-9.234667,-800.000000,-800.000000,-800.000000,-800.000000,-800.000000,-800.000000,3
748531857,0.197697,-9.292507,-9.490204,4.547405,4.843950,-9.391356,-800.000000,-800.000000,-800.000000,-800.000000,-800.000000,-800.000000,3
748533855,0.224495,-9.389114,-9.613609,4.582310,4.919052,-9.501362,-800.000000,-800.000000,-800.000000,-800.000000,-800.000000,-800.000000,3
748535853,0.256348,-9.649181,-9.905529,4.696417,5.080938,-9.777355,-800.000000,-800.000000,-800.000000,-800.000000,-800.000000,-800.000000,3
748537852,0.277805,-9.827805,-10.105610,4.775000,5.191708,-9.966707,-800.000000,-800.000000,-800.000000,-800.000000,-800.000000,-800.000000,3
748539848,0.257111,-9.686565,-9.943676,4.714727,5.100393,-9.815121,-800.000000,-800.000000,-800.000000,-800.000000,-800.000000,-800.000000,3
748541846,0.215912,-9.549713,-9.765625,4.666901,4.990768,-9.657669,-800.000000,-800.000000,-800.000000,-800.000000,-800.000000,-800.000000,3
748543844,0.169373,-9.453964,-9.623337,4.642296,4.896355,-9.538651,-800.000000,-800.000000,-800.000000,-800.000000,-800.000000,-800.000000,3
748545842,0.139523,-9.198856,-9.338379,4.529667,4.738951,-9.268618,-800.000000,-800.000000,-800.000000,-800.000000,-800.000000,-800.000000,3
748547839,0.116444,-9.037113,-9.153557,4.460335,4.635000,-9.095335,-800.000000,-800.000000,-800.000000,-800.000000,-800.000000,-800.000000,3
748549837,0.102711,-9.203625,-9.306335,4.550457,4.704523,-9.254980,-800.000000,-800.000000,-800.000000,-800.000000,-800.000000,-800.000000,3
748551835,0.118351,-9.355354,-9.473705,4.618502,4.796028,-9.414530,-800.000000,-800.000000,-800.000000,-800.000000,-800.000000,-800.000000,3
748553833,0.158310,-9.444904,-9.603214,4.643297,4.880762,-9.524059,-800.000000,-800.000000,-800.000000,-800.000000,-800.000000,-800.000000,3
748555830,0.182343,-9.707069,-9.889412,4.762363,5.035877,-9.798241,-800.000000,-800.000000,-800.000000,-800.000000,-800.000000,-800.000000,3
748557829,0.222588,-9.895039,-10.117626,4.836226,5.170107,-10.006332,-800.000000,-800.000000,-800.000000,-800.000000,-800.000000,-800.000000,3
748559826,0.227737,-9.757614,-9.985352,4.764938,5.106544,-9.871483,-800.000000,-800.000000,-800.000000,-800.000000,-800.000000,-800.000000,3
748561824,0.189877,-9.592438,-9.782314,4.701281,4.986095,-9.687376,-800.000000,-800.000000,-800.000000,-800.000000,-800.000000,-800.000000,3
748563822,0.134659,-9.504128,-9.638786,4.684734,4.886723,-9.571457,-800.000000,-800.000000,-800.000000,-800.000000,-800.000000,-800.000000,3
748565819,0.101662,-9.264183,-9.365845,4.581261,4.733753,-9.315014,-800.000000,-800.000000,-800.000000,-800.000000,-800.000000,-800.000000,3
748567817,0.079155,-9.106827,-9.185982,4.513836,4.632568,-9.146404,-800.000000,-800.000000,-800.000000,-800.000000,-800.000000,-800.000000,3
748569815,0.066948,-9.267044,-9.333992,4.600048,4.700470,-9.300518,-800.000000,-800.000000,-800.000000,-800.000000,-800.000000,-800.000000,3
748571813,0.085163,-9.417248,-9.502411,4.666042,4.793787,-9.459829,-800.000000,-800.000000,-800.000000,-800.000000,-800.000000,-800.000000,3
748573811,0.117111,-9.508705,-9.625816,4.695797,4.871464,-9.567261,-800.000000,-800.000000,-800.000000,-800.000000,-800.000000,-800.000000,3
748575811,0.147247,-9.762955,-9.910202,4.807854,5.028725,-9.836578,-800.000000,-800.000000,-800.000000,-800.000000,-800.000000,-800.000000,3
748577807,0.182629,-9.946251,-10.128880,4.881811,5.155754,-10.037565,-800.000000,-800.000000,-800.000000,-800.000000,-800.000000,-800.000000,3
748579804,0.176048,-9.797955,-9.974003,4.810953,5.075026,-9.885979,-800.000000,-800.000000,-800.000000,-800.000000,-800.000000,-800.000000,3
748581802,0.142097,-9.648132,-9.790230,4.753017,4.966164,-9.719181,-800.000000,-800.000000,-800.000000,-800.000000,-800.000000,-800.000000,3
748583800,0.097752,-9.554100,-9.651852,4.728174,4.874802,-9.602976,-800.000000,-800.000000,-800.000000,-800.000000,-800.000000,-800.000000,3
748585798,0.082493,-9.293842,-9.376335,4.605675,4.729414,-9.335089,-800.000000,-800.000000,-800.000000,-800.000000,-800.000000,-800.000000,3
748587795,0.060081,-9.119415,-9.179497,4.529667,4.619789,-9.149456,-800.000000,-800.000000,-800.000000,-800.000000,-800.000000,-800.000000,3
748589793,0.065136,-9.275627,-9.340763,4.605246,4.702950,-9.308195,-800.000000,-800.000000,-800.000000,-800.000000,-800.000000,-800.000000,3
748591791,0.089836,-9.425068,-9.514904,4.667616,4.802370,-9.469986,-800.000000,-800.000000,-800.000000,-800.000000,-800.000000,-800.000000,3
748593789,0.119400,-9.513760,-9.633160,4.697180,4.876280,-9.573460,-800.000000,-800.000000,-800.000000,-800.000000,-800.000000,-800.000000,3
748595787,0.153160,-9.767628,-9.920788,4.807234,5.036974,-9.844208,-800.000000,-800.000000,-800.000000,-800.000000,-800.000000,-800.000000,3
748597784,0.191116,-9.959126,-10.150242,4.884005,5.170679,-10.054684,-800.000000,-800.000000,-800.000000,-800.000000,-800.000000,-800.000000,3
748599782,0.198078,-9.812737,-10.010815,4.807329,5.104446,-9.911776,-800.000000,-800.000000,-800.000000,-800.000000,-800.000000,-800.000000,3
748601780,0.157261,-9.670639,-9.827900,4.756689,4.992580,-9.749269,-800.000000,-800.000000,-800.000000,-800.000000,-800.000000,-800.000000,3
748603778,0.102425,-9.584999,-9.687424,4.741287,4.894924,-9.636211,-800.000000,-800.000000,-800.000000,-800.000000,-800.000000,-800.000000,3
748605776,0.078869,-9.317112,-9.395981,4.619122,4.737425,-9.356546,-800.000000,-800.000000,-800.000000,-800.000000,-800.000000,-800.000000,3
748607774,0.063801,-9.135723,-9.199524,4.535961,4.631662,-9.167624,-800.000000,-800.000000,-800.000000,-800.000000,-800.000000,-800.000000,3
748609772,0.054455,-9.288979,-9.343433,4.617262,4.698944,-9.316206,-800.000000,-800.000000,-800.000000,-800.000000,-800.000000,-800.000000,3
748611769,0.076771,-9.436131,-9.512901,4.679680,4.794836,-9.474516,-800.000000,-800.000000,-800.000000,-800.000000,-800.000000,-800.000000,3
748613767,0.115299,-9.527874,-9.643173,4.706287,4.879236,-9.585524,-800.000000,-800.000000,-800.000000,-800.000000,-800.000000,-800.000000,3
748615766,0.133324,-9.785080,-9.918404,4.825878,5.025864,-9.851742,-800.000000,-800.000000,-800.000000,-800.000000,-800.000000,-800.000000,3
748617764,0.151539,-9.981441,-10.132980,4.914951,5.142260,-10.057211,-800.000000,-800.000000,-800.000000,-800.000000,-800.000000,-800.000000,3
748619761,0.145245,-9.844208,-9.989452,4.849482,5.067348,-9.916830,-800.000000,-800.000000,-800.000000,-800.000000,-800.000000,-800.000000,3
748621759,0.125313,-9.688663,-9.813976,4.781675,4.969645,-9.751320,-800.000000,-800.000000,-800.000000,-800.000000,-800.000000,-800.000000,3
748623757,0.108242,-9.586334,-9.694576,4.739046,4.901409,-9.640455,-800.000000,-800.000000,-800.000000,-800.000000,-800.000000,-800.000000,3
748625754,0.083923,-9.332657,-9.416580,4.624367,4.750252,-9.374619,-800.000000,-800.000000,-800.000000,-800.000000,-800.000000,-800.000000,3
748627752,0.060177,-9.147358,-9.207535,4.543591,4.633856,-9.177446,-800.000000,-800.000000,-800.000000,-800.000000,-800.000000,-800.000000,3
748629750,0.050068,-9.289837,-9.339905,4.619884,4.694986,-9.314871,-800.000000,-800.000000,-800.000000,-800.000000,-800.000000,-800.000000,3
748631748,0.070190,-9.434700,-9.504890,4.682255,4.787540,-9.469795,-800.000000,-800.000000,-800.000000,-800.000000,-800.000000,-800.000000,3
748633746,0.093269,-9.525490,-9.618759,4.716110,4.856014,-9.572124,-800.000000,-800.000000,-800.000000,-800.000000,-800.000000,-800.000000,3
748635744,0.126457,-9.775543,-9.902000,4.824543,5.014229,-9.838772,-800.000000,-800.000000,-800.000000,-800.000000,-800.000000,-800.000000,3
748637742,0.163460,-9.970284,-10.133743,4.903412,5.148602,-10.052013,-800.000000,-800.000000,-800.000000,-800.000000,-800.000000,-800.000000,3
748639740,0.169373,-9.815502,-9.984875,4.823065,5.077124,-9.900188,-800.000000,-800.000000,-800.000000,-800.000000,-800.000000,-800.000000,3
748641737,0.141811,-9.656334,-9.798145,4.757261,4.969978,-9.727240,-800.000000,-800.000000,-800.000000,-800.000000,-800.000000,-800.000000,3
748643735,0.104713,-9.567070,-9.671783,4.731178,4.888248,-9.619427,-800.000000,-800.000000,-800.000000,-800.000000,-800.000000,-800.000000,3
748645733,0.075245,-9.318352,-9.393597,4.621553,4.734421,-9.355974,-800.000000,-800.000000,-800.000000,-800.000000,-800.000000,-800.000000,3
748647731,0.050640,-9.130955,-9.181595,4.540157,4.616117,-9.156275,-800.000000,-800.000000,-800.000000,-800.000000,-800.000000,-800.000000,3
748649729,0.044155,-9.275341,-9.319496,4.615593,4.681826,-9.297419,-800.000000,-800.000000,-800.000000,-800.000000,-800.000000,-800.000000,3
748651726,0.070953,-9.424400,-9.495354,4.676723,4.783154,-9.459877,-800.000000,-800.000000,-800.000000,-800.000000,-800.000000,-800.000000,3
748653724,0.112438,-9.509182,-9.621620,4.698372,4.867029,-9.565401,-800.000000,-800.000000,-800.000000,-800.000000,-800.000000,-800.000000,3
748655722,0.130749,-9.766483,-9.897232,4.817867,5.013990,-9.831858,-800.000000,-800.000000,-800.000000,-800.000000,-800.000000,-800.000000,3
748657720,0.164413,-9.967422,-10.131836,4.901505,5.148125,-10.049629,-800.000000,-800.000000,-800.000000,-800.000000,-800.000000,-800.000000,3
748659718,0.173950,-9.807491,-9.981441,4.816771,5.077696,-9.894466,-800.000000,-800.000000,-800.000000,-800.000000,-800.000000,-800.000000,3
748661716,0.149441,-9.661865,-9.811306,4.756212,4.980373,-9.736586,-800.000000,-800.000000,-800.000000,-800.000000,-800.000000,-800.000000,3
748663714,0.112629,-9.539318,-9.651947,4.713345,4.882288,-9.595633,-800.000000,-800.000000,-800.000000,-800.000000,-800.000000,-800.000000,3
748665711,0.085831,-9.289837,-9.375668,4.602003,4.730749,-9.332752,-800.000000,-800.000000,-800.000000,-800.000000,-800.000000,-800.000000,3
748667709,0.051403,-9.110451,-9.161854,4.529524,4.606628,-9.136152,-800.000000,-800.000000,-800.000000,-800.000000,-800.000000,-800.000000,3
748669707,0.040436,-9.262657,-9.303093,4.611111,4.671764,-9.282875,-800.000000,-800.000000,-800.000000,-800.000000,-800.000000,-800.000000,3
748671705,0.066376,-9.409904,-9.476280,4.671764,4.771328,-9.443092,-800.000000,-800.000000,-800.000000,-800.000000,-800.000000,-800.000000,3
748673703,0.108624,-9.493256,-9.601879,4.692316,4.855251,-9.547567,-800.000000,-800.000000,-800.000000,-800.000000,-800.000000,-800.000000,3
748675703,0.137424,-9.742832,-9.880257,4.802704,5.008841,-9.811544,-800.000000,-800.000000,-800.000000,-800.000000,-800.000000,-800.000000,3
748677699,0.176048,-9.948540,-10.124588,4.886246,5.150318,-10.036564,-800.000000,-800.000000,-800.000000,-800.000000,-800.000000,-800.000000,3
748679696,0.174522,-9.806061,-9.980583,4.815769,5.077553,-9.893322,-800.000000,-800.000000,-800.000000,-800.000000,-800.000000,-800.000000,3
748681694,0.145817,-9.652328,-9.798145,4.753256,4.971981,-9.725237,-800.000000,-800.000000,-800.000000,-800.000000,-800.000000,-800.000000,3
748683692,0.119019,-9.552288,-9.671307,4.716635,4.895163,-9.611797,-800.000000,-800.000000,-800.000000,-800.000000,-800.000000,-800.000000,3
748685689,0.090694,-9.309292,-9.399986,4.609299,4.745340,-9.354639,-800.000000,-800.000000,-800.000000,-800.000000,-800.000000,-800.000000,3
748687687,0.065899,-9.113884,-9.179783,4.523993,4.622841,-9.146833,-800.000000,-800.000000,-800.000000,-800.000000,-800.000000,-800.000000,3
748689685,0.058556,-9.262276,-9.320831,4.601860,4.689693,-9.291553,-800.000000,-800.000000,-800.000000,-800.000000,-800.000000,-800.000000,3
748691683,0.055885,-9.429073,-9.484959,4.686594,4.770422,-9.457016,-800.000000,-800.000000,-800.000000,-800.000000,-800.000000,-800.000000,3
748693681,0.077629,-9.527397,-9.605026,4.724884,4.841328,-9.566212,-800.000000,-800.000000,-800.000000,-800.000000,-800.000000,-800.000000,3
748695678,0.109768,-9.775734,-9.885502,4.832983,4.997635,-9.830618,-800.000000,-800.000000,-800.000000,-800.000000,-800.000000,-800.000000,3
748697676,0.143814,-9.973907,-10.117722,4.915047,5.130768,-10.045815,-800.000000,-800.000000,-800.000000,-800.000000,-800.000000,-800.000000,3
748699674,0.162411,-9.821796,-9.984207,4.829693,5.073309,-9.903002,-800.000000,-800.000000,-800.000000,-800.000000,-800.000000,-800.000000,3
748701672,0.151348,-9.655190,-9.806538,4.751921,4.978943,-9.730864,-800.000000,-800.000000,-800.000000,-800.000000,-800.000000,-800.000000,3
748703670,0.113010,-9.558773,-9.671783,4.722881,4.892397,-9.615278,-800.000000,-800.000000,-800.000000,-800.000000,-800.000000,-800.000000,3
748705667,0.081158,-9.311485,-9.392643,4.615164,4.736900,-9.352064,-800.000000,-800.000000,-800.000000,-800.000000,-800.000000,-800.000000,3
748707665,0.058937,-9.121227,-9.180164,4.531145,4.619551,-9.150696,-800.000000,-800.000000,-800.000000,-800.000000,-800.000000,-800.000000,3
748709663,0.033665,-9.277534,-9.311199,4.621935,4.672432,-9.294367,-800.000000,-800.000000,-800.000000,-800.000000,-800.000000,-800.000000,3
748711661,0.047016,-9.432411,-9.479427,4.692698,4.763222,-9.455919,-800.000000,-800.000000,-800.000000,-800.000000,-800.000000,-800.000000,3
748713659,0.089455,-9.520340,-9.609795,4.715443,4.849625,-9.565067,-800.000000,-800.000000,-800.000000,-800.000000,-800.000000,-800.000000,3
748715658,0.117016,-9.774113,-9.891129,4.828548,5.004072,-9.832621,-800.000000,-800.000000,-800.000000,-800.000000,-800.000000,-800.000000,3
748717655,0.141811,-9.984493,-10.126305,4.921341,5.134058,-10.055399,-800.000000,-800.000000,-800.000000,-800.000000,-800.000000,-800.000000,3
748719652,0.154877,-9.841824,-9.996700,4.843473,5.075788,-9.919262,-800.000000,-800.000000,-800.000000,-800.000000,-800.000000,-800.000000,3
748721650,0.129604,-9.683228,-9.812832,4.776812,4.971218,-9.748030,-800.000000,-800.000000,-800.000000,-800.000000,-800.000000,-800.000000,3
748723648,0.099850,-9.583950,-9.683800,4.742050,4.891825,-9.633875,-800.000000,-800.000000,-800.000000,-800.000000,-800.000000,-800.000000,3
748725646,0.080585,-9.334660,-9.415245,4.627037,4.747915,-9.374952,-800.000000,-800.000000,-800.000000,-800.000000,-800.000000,-800.000000,3
748727643,0.049973,-9.129906,-9.179878,4.539967,4.614925,-9.154892,-800.000000,-800.000000,-800.000000,-800.000000,-800.000000,-800.000000,3
748729641,0.035572,-9.281063,-9.316635,4.622746,4.676104,-9.298849,-800.000000,-800.000000,-800.000000,-800.000000,-800.000000,-800.000000,3
748731639,0.064564,-9.434891,-9.499454,4.685163,4.782009,-9.467173,-800.000000,-800.000000,-800.000000,-800.000000,-800.000000,-800.000000,3
748733637,0.110817,-9.519005,-9.629822,4.704094,4.870319,-9.574413,-800.000000,-800.000000,-800.000000,-800.000000,-800.000000,-800.000000,3
748735635,0.129700,-9.778118,-9.907818,4.824209,5.018759,-9.842968,-800.000000,-800.000000,-800.000000,-800.000000,-800.000000,-800.000000,3
748737633,0.137615,-10.010338,-10.147953,4.936361,5.142784,-10.079145,-800.000000,-800.000000,-800.000000,-800.000000,-800.000000,-800.000000,3
748739630,0.155067,-9.869766,-10.024834,4.857349,5.089951,-9.947300,-800.000000,-800.000000,-800.000000,-800.000000,-800.000000,-800.000000,3
748741628,0.143147,-9.698296,-9.841442,4.777575,4.992294,-9.769869,-800.000000,-800.000000,-800.000000,-800.000000,-800.000000,-800.000000,3
748743626,0.106621,-9.601212,-9.707832,4.747295,4.907227,-9.654522,-800.000000,-800.000000,-800.000000,-800.000000,-800.000000,-800.000000,3
748745624,0.050354,-9.373856,-9.424210,4.661751,4.737282,-9.399033,-800.000000,-800.000000,-800.000000,-800.000000,-800.000000,-800.000000,3
748747622,0.019073,-9.169006,-9.188080,4.574966,4.603577,-9.178543,-800.000000,-800.000000,-800.000000,-800.000000,-800.000000,-800.000000,3
748749620,0.000763,-9.321117,-9.321880,4.660177,4.661322,-9.321499,-800.000000,-800.000000,-800.000000,-800.000000,-800.000000,-800.000000,3
748751617,0.029182,-9.467316,-9.496498,4.719067,4.762840,-9.481907,-800.000000,-800.000000,-800.000000,-800.000000,-800.000000,-800.000000,3
748753615,0.095940,-9.527397,-9.623337,4.715729,4.859638,-9.575367,-800.000000,-800.000000,-800.000000,-800.000000,-800.000000,-800.000000,3
748755614,0.159740,-9.760475,-9.920216,4.800367,5.039978,-9.840345,-800.000000,-800.000000,-800.000000,-800.000000,-800.000000,-800.000000,3
748757611,0.207806,-9.959888,-10.167694,4.876041,5.187750,-10.063791,-800.000000,-800.000000,-800.000000,-800.000000,-800.000000,-800.000000,3
748759609,0.246429,-9.799385,-10.045815,4.776478,5.146122,-9.922600,-800.000000,-800.000000,-800.000000,-800.000000,-800.000000,-800.000000,3
748761607,0.209427,-9.654617,-9.864044,4.722595,5.036736,-9.759331,-800.000000,-800.000000,-800.000000,-800.000000,-800.000000,-800.000000,3
748763605,0.122356,-9.605598,-9.727955,4.741621,4.925156,-9.666777,-800.000000,-800.000000,-800.000000,-800.000000,-800.000000,-800.000000,3
748765602,0.051880,-9.390545,-9.442425,4.669333,4.747152,-9.416485,-800.000000,-800.000000,-800.000000,-800.000000,-800.000000,-800.000000,3
748767600,-0.008678,-9.184265,-9.175587,4.596472,4.583454,-9.179926,-800.000000,-800.000000,-800.000000,-800.000000,-800.000000,-800.000000,3
748769598,-0.042343,-9.364510,-9.322166,4.703426,4.639912,-9.343338,-800.000000,-800.000000,-800.000000,-800.000000,-800.000000,-800.000000,3
748771596,-0.047779,-9.555531,-9.507751,4.801655,4.729986,-9.531641,-800.000000,-800.000000,-800.000000,-800.000000,-800.000000,-800.000000,3
748773594,-0.033092,-9.680271,-9.647179,4.856682,4.807043,-9.663725,-800.000000,-800.000000,-800.000000,-800.000000,-800.000000,-800.000000,3
748775594,-0.005150,-9.940910,-9.935760,4.973030,4.965305,-9.938335,-800.000000,-800.000000,-800.000000,-800.000000,-800.000000,-800.000000,3
748777590,0.029469,-10.162258,-10.191727,5.066395,5.110598,-10.176992,-800.000000,-800.000000,-800.000000,-800.000000,-800.000000,-800.000000,3
748779587,0.024605,-10.025597,-10.050201,5.000496,5.037403,-10.037899,-800.000000,-800.000000,-800.000000,-800.000000,-800.000000,-800.000000,3
748781585,-0.021267,-9.874058,-9.852791,4.947662,4.915762,-9.863424,-800.000000,-800.000000,-800.000000,-800.000000,-800.000000,-800.000000,3
748783582,-0.089550,-9.813213,-9.723663,4.951382,4.817057,-9.768438,-800.000000,-800.000000,-800.000000,-800.000000,-800.000000,-800.000000,3
748785580,-0.104904,-9.564877,-9.459972,4.834890,4.677534,-9.512424,-800.000000,-800.000000,-800.000000,-800.000000,-800.000000,-800.000000,3
748787578,-0.128174,-9.355450,-9.227276,4.741812,4.549551,-9.291363,-800.000000,-800.000000,-800.000000,-800.000000,-800.000000,-800.000000,3
748789576,-0.160503,-9.526539,-9.366035,4.843521,4.602766,-9.446287,-800.000000,-800.000000,-800.000000,-800.000000,-800.000000,-800.000000,3
748791573,-0.154781,-9.697723,-9.542942,4.926252,4.694080,-9.620333,-800.000000,-800.000000,-800.000000,-800.000000,-800.000000,-800.000000,3
748793571,-0.133705,-9.809685,-9.675980,4.971695,4.771137,-9.742832,-800.000000,-800.000000,-800.000000,-800.000000,-800.000000,-800.000000,3
748795569,-0.113201,-10.078144,-9.964943,5.095673,4.925871,-10.021544,-800.000000,-800.000000,-800.000000,-800.000000,-800.000000,-800.000000,3
748797567,-0.102615,-10.328865,-10.226250,5.215740,5.061817,-10.277557,-800.000000,-800.000000,-800.000000,-800.000000,-800.000000,-800.000000,3
748799565,-0.108051,-10.206413,-10.098362,5.157232,4.995155,-10.152388,-800.000000,-800.000000,-800.000000,-800.000000,-800.000000,-800.000000,3
748801562,-0.144958,-10.072517,-9.927559,5.108738,4.891300,-10.000038,-800.000000,-800.000000,-800.000000,-800.000000,-800.000000,-800.000000,3
748803560,-0.213718,-10.009003,-9.795284,5.111361,4.790783,-9.902143,-800.000000,-800.000000,-800.000000,-800.000000,-800.000000,-800.000000,3
748805558,-0.272846,-9.777737,-9.504890,5.025291,4.616022,-9.641314,-800.000000,-800.000000,-800.000000,-800.000000,-800.000000,-800.000000,3
748807556,-0.325298,-9.567165,-9.241867,4.946232,4.458284,-9.404516,-800.000000,-800.000000,-800.000000,-800.000000,-800.000000,-800.000000,3
748809554,-0.362110,-9.733391,-9.371281,5.047750,4.504585,-9.552336,-800.000000,-800.000000,-800.000000,-800.000000,-800.000000,-800.000000,3
748811551,-0.339890,-9.884644,-9.544754,5.112267,4.602432,-9.714699,-800.000000,-800.000000,-800.000000,-800.000000,-800.000000,-800.000000,3
748813549,-0.265980,-9.951019,-9.685040,5.108500,4.709530,-9.818029,-800.000000,-800.000000,-800.000000,-800.000000,-800.000000,-800.000000,3
748815548,-0.237560,-10.218143,-9.980583,5.227852,4.871511,-10.099363,-800.000000,-800.000000,-800.000000,-800.000000,-800.000000,-800.000000,3
748817545,-0.229454,-10.498905,-10.269451,5.364180,5.019999,-10.384178,-800.000000,-800.000000,-800.000000,-800.000000,-800.000000,-800.000000,3
748819543,-0.212765,-10.356045,-10.143280,5.284405,4.965258,-10.249662,-800.000000,-800.000000,-800.000000,-800.000000,-800.000000,-800.000000,3
748821540,-0.203228,-10.174465,-9.971237,5.188847,4.884005,-10.072851,-800.000000,-800.000000,-800.000000,-800.000000,-800.000000,-800.000000,3
748823538,-0.255394,-10.110569,-9.855175,5.182981,4.799891,-9.982872,-800.000000,-800.000000,-800.000000,-800.000000,-800.000000,-800.000000,3
748825536,-0.353432,-9.921646,-9.568214,5.137539,4.607391,-9.744930,-800.000000,-800.000000,-800.000000,-800.000000,-800.000000,-800.000000,3
748827534,-0.462151,-9.753609,-9.291458,5.107880,4.414654,-9.522533,-800.000000,-800.000000,-800.000000,-800.000000,-800.000000,-800.000000,3
748829532,-0.472927,-9.906483,-9.433556,5.189705,4.480314,-9.670019,-800.000000,-800.000000,-800.000000,-800.000000,-800.000000,-800.000000,3
748831530,-0.486279,-10.090733,-9.604454,5.288506,4.559088,-9.847593,-800.000000,-800.000000,-800.000000,-800.000000,-800.000000,-800.000000,3
748833527,-0.470448,-10.198498,-9.728050,5.334473,4.628801,-9.963274,-800.000000,-800.000000,-800.000000,-800.000000,-800.000000,-800.000000,3
748835525,-0.421429,-10.462379,-10.040951,5.441904,4.809761,-10.251665,-800.000000,-800.000000,-800.000000,-800.000000,-800.000000,-800.000000,3
748837523,-0.364399,-10.717297,-10.352898,5.540848,4.994249,-10.535097,-800.000000,-800.000000,-800.000000,-800.000000,-800.000000,-800.000000,3
748839521,-0.316238,-10.560894,-10.244656,5.438566,4.964209,-10.402775,-800.000000,-800.000000,-800.000000,-800.000000,-800.000000,-800.000000,3
748841519,-0.292015,-10.356808,-10.064793,5.324411,4.886389,-10.210800,-800.000000,-800.000000,-800.000000,-800.000000,-800.000000,-800.000000,3
748843516,-0.323963,-10.258389,-9.934425,5.291176,4.805231,-10.096407,-800.000000,-800.000000,-800.000000,-800.000000,-800.000000,-800.000000,3
748845514,-0.383759,-10.011292,-9.627533,5.197525,4.621887,-9.819412,-800.000000,-800.000000,-800.000000,-800.000000,-800.000000,-800.000000,3
748847512,-0.413322,-9.767723,-9.354401,5.090523,4.470539,-9.561062,-800.000000,-800.000000,-800.000000,-800.000000,-800.000000,-800.000000,3
748849510,-0.412655,-9.909534,-9.496880,5.161095,4.542112,-9.703207,-800.000000,-800.000000,-800.000000,-800.000000,-800.000000,-800.000000,3
748851508,-0.384903,-10.078526,-9.693623,5.231714,4.654360,-9.886074,-800.000000,-800.000000,-800.000000,-800.000000,-800.000000,-800.000000,3
748853506,-0.355911,-10.183907,-9.827995,5.269909,4.736042,-10.005951,-800.000000,-800.000000,-800.000000,-800.000000,-800.000000,-800.000000,3
748855504,-0.351524,-10.451412,-10.099888,5.401468,4.874182,-10.275650,-800.000000,-800.000000,-800.000000,-800.000000,-800.000000,-800.000000,3
748857501,-0.359535,-10.705376,-10.345840,5.532455,4.993153,-10.525608,-800.000000,-800.000000,-800.000000,-800.000000,-800.000000,-800.000000,3
748859499,-0.376797,-10.561275,-10.184479,5.469036,4.903841,-10.372877,-800.000000,-800.000000,-800.000000,-800.000000,-800.000000,-800.000000,3
748861497,-0.357819,-10.348129,-9.990311,5.352974,4.816246,-10.169220,-800.000000,-800.000000,-800.000000,-800.000000,-800.000000,-800.000000,3
748863495,-0.377846,-10.239220,-9.861374,5.308533,4.741764,-10.050297,-800.000000,-800.000000,-800.000000,-800.000000,-800.000000,-800.000000,3
748865493,-0.392532,-10.010147,-9.617615,5.201340,4.612541,-9.813881,-800.000000,-800.000000,-800.000000,-800.000000,-800.000000,-800.000000,3
748867491,-0.424862,-9.765911,-9.341049,5.095387,4.458094,-9.553480,-800.000000,-800.000000,-800.000000,-800.000000,-800.000000,-800.000000,3
748869489,-0.426960,-9.882736,-9.455776,5.154848,4.514408,-9.669256,-800.000000,-800.000000,-800.000000,-800.000000,-800.000000,-800.000000,3
748871486,-0.362206,-10.059929,-9.697723,5.211067,4.667759,-9.878826,-800.000000,-800.000000,-800.000000,-800.000000,-800.000000,-800.000000,3
748873484,-0.276566,-10.152531,-9.875965,5.214548,4.799700,-10.014248,-800.000000,-800.000000,-800.000000,-800.000000,-800.000000,-800.000000,3
748875484,-0.233936,-10.400391,-10.166454,5.317163,4.966259,-10.283422,-800.000000,-800.000000,-800.000000,-800.000000,-800.000000,-800.000000,3
748877480,-0.193501,-10.645676,-10.452175,5.419588,5.129337,-10.548925,-800.000000,-800.000000,-800.000000,-800.000000,-800.000000,-800.000000,3
748879478,-0.174427,-10.501194,-10.326767,5.337811,5.076170,-10.413980,-800.000000,-800.000000,-800.000000,-800.000000,-800.000000,-800.000000,3
748881475,-0.133610,-10.264397,-10.130787,5.199003,4.998589,-10.197592,-800.000000,-800.000000,-800.000000,-800.000000,-800.000000,-800.000000,3
748883473,-0.137997,-10.154438,-10.016441,5.146217,4.939222,-10.085440,-800.000000,-800.000000,-800.000000,-800.000000,-800.000000,-800.000000,3
748885471,-0.140190,-9.895515,-9.755325,5.017853,4.807568,-9.825420,-800.000000,-800.000000,-800.000000,-800.000000,-800.000000,-800.000000,3
748887469,-0.179672,-9.677029,-9.497356,4.928350,4.658842,-9.587193,-800.000000,-800.000000,-800.000000,-800.000000,-800.000000,-800.000000,3
748889467,-0.179863,-9.831524,-9.651661,5.005693,4.735899,-9.741592,-800.000000,-800.000000,-800.000000,-800.000000,-800.000000,-800.000000,3
748891464,-0.147247,-10.014439,-9.867191,5.080843,4.859972,-9.940815,-800.000000,-800.000000,-800.000000,-800.000000,-800.000000,-800.000000,3
748893462,-0.086403,-10.138130,-10.051727,5.112267,4.982662,-10.094929,-800.000000,-800.000000,-800.000000,-800.000000,-800.000000,-800.000000,3
748895460,-0.030899,-10.461235,-10.430336,5.246067,5.199718,-10.445786,-800.000000,-800.000000,-800.000000,-800.000000,-800.000000,-800.000000,3
748897459,0.035572,-10.785866,-10.821438,5.375147,5.428505,-10.803652,-800.000000,-800.000000,-800.000000,-800.000000,-800.000000,-800.000000,3
748899456,0.100899,-10.635567,-10.736465,5.267334,5.418682,-10.686016,-800.000000,-800.000000,-800.000000,-800.000000,-800.000000,-800.000000,3
748901454,0.134850,-10.426426,-10.561275,5.145788,5.348063,-10.493851,-800.000000,-800.000000,-800.000000,-800.000000,-800.000000,-800.000000,3
748903451,0.132465,-10.337734,-10.470200,5.102634,5.301332,-10.403967,-800.000000,-800.000000,-800.000000,-800.000000,-800.000000,-800.000000,3
748905449,0.118828,-10.114670,-10.233498,4.997921,5.176163,-10.174084,-800.000000,-800.000000,-800.000000,-800.000000,-800.000000,-800.000000,3
748907447,0.134277,-9.843445,-9.977722,4.854584,5.056000,-9.910583,-800.000000,-800.000000,-800.000000,-800.000000,-800.000000,-800.000000,3
748909445,0.174427,-9.983444,-10.157871,4.904509,5.166149,-10.070658,-800.000000,-800.000000,-800.000000,-800.000000,-800.000000,-800.000000,3
748911442,0.225353,-10.188675,-10.414028,4.981661,5.319691,-10.301352,-800.000000,-800.000000,-800.000000,-800.000000,-800.000000,-800.000000,3
748913440,0.352001,-10.288334,-10.640335,4.968166,5.496168,-10.464334,-800.000000,-800.000000,-800.000000,-800.000000,-800.000000,-800.000000,3
748915440,0.551033,-10.519695,-11.070728,4.984331,5.810881,-10.795212,-800.000000,-800.000000,-800.000000,-800.000000,-800.000000,-800.000000,3
748917436,0.678158,-10.809040,-11.487198,5.065441,6.082678,-11.148119,-800.000000,-800.000000,-800.000000,-800.000000,-800.000000,-800.000000,3
748919434,0.750446,-10.677433,-11.427879,4.963493,6.089163,-11.052656,-800.000000,-800.000000,-800.000000,-800.000000,-800.000000,-800.000000,3
748921431,0.772095,-10.469055,-11.241150,4.848480,6.006622,-10.855103,-800.000000,-800.000000,-800.000000,-800.000000,-800.000000,-800.000000,3
748923429,0.737953,-10.339928,-11.077881,4.800987,5.907917,-10.708904,-800.000000,-800.000000,-800.000000,-800.000000,-800.000000,-800.000000,3
748925427,0.679398,-10.081673,-10.761070,4.701138,5.720234,-10.421371,-800.000000,-800.000000,-800.000000,-800.000000,-800.000000,-800.000000,3
748927425,0.579739,-9.820557,-10.400295,4.620409,5.490017,-10.110426,-800.000000,-800.000000,-800.000000,-800.000000,-800.000000,-800.000000,3
748929422,0.505066,-9.997654,-10.502720,4.746294,5.503893,-10.250187,-800.000000,-800.000000,-800.000000,-800.000000,-800.000000,-800.000000,3
748931420,0.424099,-10.270977,-10.695076,4.923439,5.559587,-10.483027,-800.000000,-800.000000,-800.000000,-800.000000,-800.000000,-800.000000,3
748933418,0.440216,-10.380840,-10.821056,4.970312,5.630636,-10.600948,-800.000000,-800.000000,-800.000000,-800.000000,-800.000000,-800.000000,3
748935416,0.523853,-10.625458,-11.149311,5.050802,5.836582,-10.887384,-800.000000,-800.000000,-800.000000,-800.000000,-800.000000,-800.000000,3
748937415,0.634003,-10.894203,-11.528206,5.130100,6.081104,-11.211205,-800.000000,-800.000000,-800.000000,-800.000000,-800.000000,-800.000000,3
748939412,0.620651,-10.731411,-11.352062,5.055380,5.986357,-11.041737,-800.000000,-800.000000,-800.000000,-800.000000,-800.000000,-800.000000,3
748941409,0.566101,-10.522938,-11.089039,4.978418,5.827570,-10.805988,-800.000000,-800.000000,-800.000000,-800.000000,-800.000000,-800.000000,3
748943407,0.476360,-10.423088,-10.899448,4.973364,5.687904,-10.661268,-800.000000,-800.000000,-800.000000,-800.000000,-800.000000,-800.000000,3
748945405,0.338936,-10.214233,-10.553169,4.937649,5.446053,-10.383701,-800.000000,-800.000000,-800.000000,-800.000000,-800.000000,-800.000000,3
748947403,0.203896,-9.983063,-10.186958,4.889584,5.195427,-10.085011,-800.000000,-800.000000,-800.000000,-800.000000,-800.000000,-800.000000,3
748949401,0.267696,-10.067654,-10.335350,4.899979,5.301523,-10.201502,-800.000000,-800.000000,-800.000000,-800.000000,-800.000000,-800.000000,3
748951401,0.379086,-10.171318,-10.550404,4.896116,5.464745,-10.360861,-800.000000,-800.000000,-800.000000,-800.000000,-800.000000,-800.000000,3
748953396,0.450802,-10.261440,-10.712242,4.905319,5.581522,-10.486841,-800.000000,-800.000000,-800.000000,-800.000000,-800.000000,-800.000000,3
748955394,0.510311,-10.538673,-11.048985,5.014181,5.779648,-10.793829,-800.000000,-800.000000,-800.000000,-800.000000,-800.000000,-800.000000,3
748957392,0.563145,-10.842896,-11.406040,5.139875,5.984592,-11.124468,-800.000000,-800.000000,-800.000000,-800.000000,-800.000000,-800.000000,3
748959390,0.534248,-10.732746,-11.266994,5.099249,5.900621,-10.999870,-800.000000,-800.000000,-800.000000,-800.000000,-800.000000,-800.000000,3
748961389,0.462627,-10.524940,-10.987568,5.031157,5.725098,-10.756254,-800.000000,-800.000000,-800.000000,-800.000000,-800.000000,-800.000000,3
748963386,0.409985,-10.378075,-10.788059,4.984045,5.599022,-10.583067,-800.000000,-800.000000,-800.000000,-800.000000,-800.000000,-800.000000,3
748965383,0.305080,-10.095787,-10.400867,4.895353,5.352974,-10.248327,-800.000000,-800.000000,-800.000000,-800.000000,-800.000000,-800.000000,3
748967382,0.184822,-9.827805,-10.012627,4.821491,5.098724,-9.920216,-800.000000,-800.000000,-800.000000,-800.000000,-800.000000,-800.000000,3
748969379,0.166035,-10.012054,-10.178089,4.923010,5.172062,-10.095072,-800.000000,-800.000000,-800.000000,-800.000000,-800.000000,-800.000000,3
748971377,0.217628,-10.178947,-10.396576,4.980659,5.307102,-10.287762,-800.000000,-800.000000,-800.000000,-800.000000,-800.000000,-800.000000,3
748973375,0.302219,-10.279560,-10.581779,4.988670,5.441999,-10.430670,-800.000000,-800.000000,-800.000000,-800.000000,-800.000000,-800.000000,3
748975375,0.427628,-10.529327,-10.956955,5.050850,5.692291,-10.743141,-800.000000,-800.000000,-800.000000,-800.000000,-800.000000,-800.000000,3
748977372,0.542641,-10.815620,-11.358261,5.136490,5.950451,-11.086941,-800.000000,-800.000000,-800.000000,-800.000000,-800.000000,-800.000000,3
748979369,0.559616,-10.643673,-11.203289,5.042028,5.881453,-10.923481,-800.000000,-800.000000,-800.000000,-800.000000,-800.000000,-800.000000,3
748981367,0.529575,-10.399055,-10.928631,4.934740,5.729103,-10.663843,-800.000000,-800.000000,-800.000000,-800.000000,-800.000000,-800.000000,3
748983364,0.477314,-10.237885,-10.715199,4.880285,5.596256,-10.476542,-800.000000,-800.000000,-800.000000,-800.000000,-800.000000,-800.000000,3
748985362,0.315762,-9.986019,-10.301781,4.835129,5.308771,-10.143900,-800.000000,-800.000000,-800.000000,-800.000000,-800.000000,-800.000000,3
748987360,0.167179,-9.698582,-9.865761,4.765701,5.016470,-9.782171,-800.000000,-800.000000,-800.000000,-800.000000,-800.000000,-800.000000,3
748989357,0.186348,-9.807491,-9.993839,4.810572,5.090094,-9.900665,-800.000000,-800.000000,-800.000000,-800.000000,-800.000000,-800.000000,3
748991356,0.220394,-10.027599,-10.247993,4.903603,5.234194,-10.137796,-800.000000,-800.000000,-800.000000,-800.000000,-800.000000,-800.000000,3
748993353,0.219917,-10.228252,-10.448170,5.004168,5.334044,-10.338211,-800.000000,-800.000000,-800.000000,-800.000000,-800.000000,-800.000000,3
748995352,0.387192,-10.382271,-10.769463,4.997540,5.578327,-10.575867,-800.000000,-800.000000,-800.000000,-800.000000,-800.000000,-800.000000,3
748997349,0.665760,-10.458851,-11.124611,4.896545,5.895185,-10.791731,-800.000000,-800.000000,-800.000000,-800.000000,-800.000000,-800.000000,3
748999347,0.699902,-10.185432,-10.885334,4.742765,5.792618,-10.535383,-800.000000,-800.000000,-800.000000,-800.000000,-800.000000,-800.000000,3
749001345,0.630665,-9.902859,-10.533524,4.636097,5.582094,-10.218191,-800.000000,-800.000000,-800.000000,-800.000000,-800.000000,-800.000000,3
749003342,0.592136,-9.723377,-10.315514,4.565620,5.453825,-10.019445,-800.000000,-800.000000,-800.000000,-800.000000,-800.000000,-800.000000,3
749005340,0.552464,-9.377098,-9.929562,4.412317,5.241013,-9.653330,-800.000000,-800.000000,-800.000000,-800.000000,-800.000000,-800.000000,3
749007338,0.509739,-8.976078,-9.485817,4.233170,4.997778,-9.230947,-800.000000,-800.000000,-800.000000,-800.000000,-800.000000,-800.000000,3
749009336,0.497723,-9.111500,-9.609222,4.306889,5.053473,-9.360361,-800.000000,-800.000000,-800.000000,-800.000000,-800.000000,-800.000000,3
749011334,0.579643,-9.243107,-9.822750,4.331732,5.201197,-9.532928,-800.000000,-800.000000,-800.000000,-800.000000,-800.000000,-800.000000,3
749013332,0.804520,-9.166622,-9.971142,4.181051,5.387831,-9.568882,-800.000000,-800.000000,-800.000000,-800.000000,-800.000000,-800.000000,3
749015332,1.042461,-9.283733,-10.326195,4.120636,5.684328,-9.804964,-800.000000,-800.000000,-800.000000,-800.000000,-800.000000,-800.000000,3
749017327,1.124763,-9.645176,-10.769939,4.260206,5.947351,-10.207558,-800.000000,-800.000000,-800.000000,-800.000000,-800.000000,-800.000000,3
749019325,1.049805,-9.747601,-10.797405,4.348898,5.923605,-10.272503,-800.000000,-800.000000,-800.000000,-800.000000,-800.000000,-800.000000,3
749021323,0.874996,-9.779835,-10.654831,4.452419,5.764914,-10.217333,-800.000000,-800.000000,-800.000000,-800.000000,-800.000000,-800.000000,3
749023320,0.709820,-9.927559,-10.637379,4.608870,5.673599,-10.282469,-800.000000,-800.000000,-800.000000,-800.000000,-800.000000,-800.000000,3
749025318,0.596142,-10.008240,-10.604382,4.706049,5.600262,-10.306311,-800.000000,-800.000000,-800.000000,-800.000000,-800.000000,-800.000000,3
749027316,0.516033,-10.072327,-10.588360,4.778147,5.552197,-10.330343,-800.000000,-800.000000,-800.000000,-800.000000,-800.000000,-800.000000,3
749029314,0.504684,-10.508156,-11.012840,5.001736,5.758762,-10.760498,-800.000000,-800.000000,-800.000000,-800.000000,-800.000000,-800.000000,3
749031311,0.440216,-10.849094,-11.289310,5.204439,5.864763,-11.069202,-800.000000,-800.000000,-800.000000,-800.000000,-800.000000,-800.000000,3
749033309,0.314808,-11.071205,-11.386013,5.378199,5.850410,-11.228609,-800.000000,-800.000000,-800.000000,-800.000000,-800.000000,-800.000000,3
749035307,0.342274,-11.351776,-11.694050,5.504751,6.018162,-11.522913,-800.000000,-800.000000,-800.000000,-800.000000,-800.000000,-800.000000,3
749037305,0.500870,-11.535835,-12.036705,5.517483,6.268787,-11.786270,-800.000000,-800.000000,-800.000000,-800.000000,-800.000000,-800.000000,3
749039302,0.484276,-11.303043,-11.787319,5.409384,6.135798,-11.545181,-800.000000,-800.000000,-800.000000,-800.000000,-800.000000,-800.000000,3
749041300,0.347996,-11.053467,-11.401463,5.352736,5.874729,-11.227465,-800.000000,-800.000000,-800.000000,-800.000000,-800.000000,-800.000000,3
749043298,0.309086,-10.823822,-11.132908,5.257368,5.720997,-10.978365,-800.000000,-800.000000,-800.000000,-800.000000,-800.000000,-800.000000,3
749045296,0.266075,-10.414505,-10.680580,5.074215,5.473328,-10.547543,-800.000000,-800.000000,-800.000000,-800.000000,-800.000000,-800.000000,3
749047294,0.140095,-10.011292,-10.151386,4.935598,5.145741,-10.081339,-800.000000,-800.000000,-800.000000,-800.000000,-800.000000,-800.000000,3
749049292,0.037766,-10.121822,-10.159588,5.042028,5.098677,-10.140705,-800.000000,-800.000000,-800.000000,-800.000000,-800.000000,-800.000000,3
749051290,0.070190,-10.321522,-10.391712,5.125666,5.230951,-10.356617,-800.000000,-800.000000,-800.000000,-800.000000,-800.000000,-800.000000,3
749053287,0.177765,-10.401249,-10.579014,5.111742,5.378389,-10.490131,-800.000000,-800.000000,-800.000000,-800.000000,-800.000000,-800.000000,3
749055286,0.307941,-10.612392,-10.920334,5.152225,5.614138,-10.766363,-800.000000,-800.000000,-800.000000,-800.000000,-800.000000,-800.000000,3
749057283,0.444508,-10.872173,-11.316681,5.213833,5.880594,-11.094427,-800.000000,-800.000000,-800.000000,-800.000000,-800.000000,-800.000000,3
749059281,0.489044,-10.657310,-11.146355,5.084133,5.817699,-10.901833,-800.000000,-800.000000,-800.000000,-800.000000,-800.000000,-800.000000,3
749061279,0.398731,-10.442829,-10.841560,5.022049,5.620146,-10.642195,-800.000000,-800.000000,-800.000000,-800.000000,-800.000000,-800.000000,3
749063277,0.241947,-10.406017,-10.647964,5.082035,5.444956,-10.526991,-800.000000,-800.000000,-800.000000,-800.000000,-800.000000,-800.000000,3
749065275,0.164127,-10.154629,-10.318756,4.995251,5.241442,-10.236692,-800.000000,-800.000000,-800.000000,-800.000000,-800.000000,-800.000000,3
749067273,0.104523,-9.769344,-9.873867,4.832411,4.989195,-9.821606,-800.000000,-800.000000,-800.000000,-800.000000,-800.000000,-800.000000,3
749069270,0.114536,-9.863949,-9.978485,4.874706,5.046511,-9.921217,-800.000000,-800.000000,-800.000000,-800.000000,-800.000000,-800.000000,3
749071268,0.166512,-10.091400,-10.257912,4.962444,5.212212,-10.174656,-800.000000,-800.000000,-800.000000,-800.000000,-800.000000,-800.000000,3
749073266,0.239944,-10.199928,-10.439873,4.979992,5.339909,-10.319901,-800.000000,-800.000000,-800.000000,-800.000000,-800.000000,-800.000000,3
749075266,0.302410,-10.462189,-10.764599,5.079889,5.533504,-10.613394,-800.000000,-800.000000,-800.000000,-800.000000,-800.000000,-800.000000,3
749077262,0.386143,-10.787106,-11.173248,5.200481,5.779696,-10.980177,-800.000000,-800.000000,-800.000000,-800.000000,-800.000000,-800.000000,3
749079260,0.412083,-10.629368,-11.041451,5.108643,5.726767,-10.835409,-800.000000,-800.000000,-800.000000,-800.000000,-800.000000,-800.000000,3
749081257,0.363159,-10.421085,-10.784245,5.028963,5.573702,-10.602665,-800.000000,-800.000000,-800.000000,-800.000000,-800.000000,-800.000000,3
749083255,0.277424,-10.330582,-10.608006,5.026579,5.442715,-10.469294,-800.000000,-800.000000,-800.000000,-800.000000,-800.000000,-800.000000,3
749085253,0.231647,-10.094738,-10.326385,4.931545,5.279016,-10.210562,-800.000000,-800.000000,-800.000000,-800.000000,-800.000000,-800.000000,3
749087251,0.196075,-9.722805,-9.918880,4.763365,5.057478,-9.820843,-800.000000,-800.000000,-800.000000,-800.000000,-800.000000,-800.000000,3
749089249,0.167751,-9.812260,-9.980011,4.822254,5.073881,-9.896135,-800.000000,-800.000000,-800.000000,-800.000000,-800.000000,-800.000000,3
749091246,0.184441,-10.068512,-10.252953,4.942036,5.218697,-10.160732,-800.000000,-800.000000,-800.000000,-800.000000,-800.000000,-800.000000,3
749093244,0.226784,-10.241699,-10.468483,5.007458,5.347633,-10.355091,-800.000000,-800.000000,-800.000000,-800.000000,-800.000000,-800.000000,3
749095243,0.370598,-10.446262,-10.816860,5.037832,5.593729,-10.631561,-800.000000,-800.000000,-800.000000,-800.000000,-800.000000,-800.000000,3
749097240,0.509644,-10.707283,-11.216927,5.098820,5.863285,-10.962105,-800.000000,-800.000000,-800.000000,-800.000000,-800.000000,-800.000000,3
749099238,0.532627,-10.545731,-11.078358,5.006552,5.805492,-10.812044,-800.000000,-800.000000,-800.000000,-800.000000,-800.000000,-800.000000,3
749101236,0.489330,-10.329914,-10.819244,4.920292,5.654287,-10.574579,-800.000000,-800.000000,-800.000000,-800.000000,-800.000000,-800.000000,3
749103234,0.430298,-10.253429,-10.683727,4.911566,5.557013,-10.468578,-800.000000,-800.000000,-800.000000,-800.000000,-800.000000,-800.000000,3
749105232,0.354385,-10.002518,-10.356903,4.824066,5.355644,-10.179710,-800.000000,-800.000000,-800.000000,-800.000000,-800.000000,-800.000000,3
749107229,0.247860,-9.721184,-9.969044,4.736662,5.108452,-9.845114,-800.000000,-800.000000,-800.000000,-800.000000,-800.000000,-800.000000,3
749109227,0.247574,-9.861755,-10.109329,4.807091,5.178452,-9.985542,-800.000000,-800.000000,-800.000000,-800.000000,-800.000000,-800.000000,3
749111224,0.322437,-10.084534,-10.406971,4.881048,5.364704,-10.245752,-800.000000,-800.000000,-800.000000,-800.000000,-800.000000,-800.000000,3
749113222,0.396729,-10.172367,-10.569096,4.887819,5.482912,-10.370731,-800.000000,-800.000000,-800.000000,-800.000000,-800.000000,-800.000000,3
749115223,0.499821,-10.414791,-10.914612,4.957485,5.707216,-10.664701,-800.000000,-800.000000,-800.000000,-800.000000,-800.000000,-800.000000,3
749117219,0.652981,-10.748100,-11.401081,5.047560,6.027031,-11.074591,-800.000000,-800.000000,-800.000000,-800.000000,-800.000000,-800.000000,3
749119215,0.697517,-10.598564,-11.296082,4.950523,5.996799,-10.947323,-800.000000,-800.000000,-800.000000,-800.000000,-800.000000,-800.000000,3
749121215,0.642395,-10.385513,-11.027908,4.871559,5.835152,-10.706711,-800.000000,-800.000000,-800.000000,-800.000000,-800.000000,-800.000000,3
749123215,0.590038,-10.269547,-10.859585,4.839754,5.724812,-10.564566,-800.000000,-800.000000,-800.000000,-800.000000,-800.000000,-800.000000,3
749125215,0.516796,-10.014534,-10.531330,4.748869,5.524063,-10.272932,-800.000000,-800.000000,-800.000000,-800.000000,-800.000000,-800.000000,3
749127206,0.395298,-9.704304,-10.099602,4.654503,5.247450,-9.901953,-800.000000,-800.000000,-800.000000,-800.000000,-800.000000,-800.000000,3
749129204,0.439262,-9.804440,-10.243702,4.682589,5.341482,-10.024071,-800.000000,-800.000000,-800.000000,-800.000000,-800.000000,-800.000000,3
749131201,0.551033,-9.979916,-10.530949,4.714441,5.540991,-10.255432,-800.000000,-800.000000,-800.000000,-800.000000,-800.000000,-800.000000,3
749133199,0.615501,-10.097408,-10.712910,4.740953,5.664206,-10.405159,-800.000000,-800.000000,-800.000000,-800.000000,-800.000000,-800.000000,3
749135197,0.716305,-10.340595,-11.056900,4.812145,5.886602,-10.698748,-800.000000,-800.000000,-800.000000,-800.000000,-800.000000,-800.000000,3
749137195,0.912762,-10.626030,-11.538792,4.856634,6.225777,-11.082411,-800.000000,-800.000000,-800.000000,-800.000000,-800.000000,-800.000000,3
749139192,0.914955,-10.492516,-11.407471,4.788780,6.161213,-10.949993,-800.000000,-800.000000,-800.000000,-800.000000,-800.000000,-800.000000,3
749141190,0.822353,-10.329056,-11.151409,4.753351,5.986881,-10.740232,-800.000000,-800.000000,-800.000000,-800.000000,-800.000000,-800.000000,3
749143188,0.710583,-10.252571,-10.963154,4.770994,5.836868,-10.607862,-800.000000,-800.000000,-800.000000,-800.000000,-800.000000,-800.000000,3
749145185,0.652695,-9.960842,-10.613537,4.654074,5.633116,-10.287189,-800.000000,-800.000000,-800.000000,-800.000000,-800.000000,-800.000000,3
749147183,0.586319,-9.567451,-10.153770,4.490566,5.370045,-9.860611,-800.000000,-800.000000,-800.000000,-800.000000,-800.000000,-800.000000,3
749149181,0.574780,-9.669495,-10.244274,4.547358,5.409527,-9.956884,-800.000000,-800.000000,-800.000000,-800.000000,-800.000000,-800.000000,3
749151179,0.538826,-9.976768,-10.515594,4.718971,5.527210,-10.246181,-800.000000,-800.000000,-800.000000,-800.000000,-800.000000,-800.000000,3
749153176,0.629330,-10.094929,-10.724258,4.732800,5.676794,-10.409594,-800.000000,-800.000000,-800.000000,-800.000000,-800.000000,-800.000000,3
749155174,0.830555,-10.287380,-11.117935,4.728413,5.974245,-10.702658,-800.000000,-800.000000,-800.000000,-800.000000,-800.000000,-800.000000,3
749157172,1.018429,-10.555458,-11.573887,4.768515,6.296158,-11.064672,-800.000000,-800.000000,-800.000000,-800.000000,-800.000000,-800.000000,3
749159169,1.010609,-10.434818,-11.445427,4.712105,6.228018,-10.940123,-800.000000,-800.000000,-800.000000,-800.000000,-800.000000,-800.000000,3
749161167,0.864887,-10.266304,-11.131191,4.700708,5.998039,-10.698748,-800.000000,-800.000000,-800.000000,-800.000000,-800.000000,-800.000000,3
749163165,0.723076,-10.166359,-10.889435,4.721642,5.806255,-10.527897,-800.000000,-800.000000,-800.000000,-800.000000,-800.000000,-800.000000,3
749165163,0.611401,-9.917736,-10.529137,4.653168,5.570269,-10.223436,-800.000000,-800.000000,-800.000000,-800.000000,-800.000000,-800.000000,3
749167161,0.466633,-9.606075,-10.072708,4.569721,5.269670,-9.839392,-800.000000,-800.000000,-800.000000,-800.000000,-800.000000,-800.000000,3
749169158,0.476646,-9.713936,-10.190582,4.618645,5.333614,-9.952259,-800.000000,-800.000000,-800.000000,-800.000000,-800.000000,-800.000000,3
749171156,0.562572,-9.910965,-10.473537,4.674196,5.518055,-10.192251,-800.000000,-800.000000,-800.000000,-800.000000,-800.000000,-800.000000,3
749173154,0.646305,-10.078812,-10.725117,4.716253,5.685711,-10.401964,-800.000000,-800.000000,-800.000000,-800.000000,-800.000000,-800.000000,3
749175157,0.784206,-10.297489,-11.081696,4.756641,5.932951,-10.689592,-800.000000,-800.000000,-800.000000,-800.000000,-800.000000,-800.000000,3
749177150,0.926971,-10.589409,-11.516380,4.831219,6.221676,-11.052895,-800.000000,-800.000000,-800.000000,-800.000000,-800.000000,-800.000000,3
749179147,0.912571,-10.472202,-11.384773,4.779816,6.148672,-10.928488,-800.000000,-800.000000,-800.000000,-800.000000,-800.000000,-800.000000,3
749181145,0.857925,-10.233498,-11.091423,4.687786,5.974674,-10.662460,-800.000000,-800.000000,-800.000000,-800.000000,-800.000000,-800.000000,3
749183143,0.779438,-10.113621,-10.893059,4.667091,5.836248,-10.503340,-800.000000,-800.000000,-800.000000,-800.000000,-800.000000,-800.000000,3
749185140,0.613117,-9.943295,-10.556412,4.665089,5.584764,-10.249853,-800.000000,-800.000000,-800.000000,-800.000000,-800.000000,-800.000000,3
749187138,0.486946,-9.633636,-10.120583,4.573345,5.303764,-9.877110,-800.000000,-800.000000,-800.000000,-800.000000,-800.000000,-800.000000,3
749189136,0.510406,-9.689045,-10.199451,4.589319,5.354929,-9.944248,-800.000000,-800.000000,-800.000000,-800.000000,-800.000000,-800.000000,3
749191133,0.629044,-9.856415,-10.485458,4.613686,5.557251,-10.170937,-800.000000,-800.000000,-800.000000,-800.000000,-800.000000,-800.000000,3
749193131,0.732231,-9.927940,-10.660172,4.597855,5.696201,-10.294056,-800.000000,-800.000000,-800.000000,-800.000000,-800.000000,-800.000000,3
749195129,0.836182,-10.149193,-10.985374,4.656506,5.910778,-10.567284,-800.000000,-800.000000,-800.000000,-800.000000,-800.000000,-800.000000,3
749197127,0.934029,-10.553265,-11.487293,4.809618,6.210661,-11.020279,-800.000000,-800.000000,-800.000000,-800.000000,-800.000000,-800.000000,3
749199124,0.787735,-10.538769,-11.326504,4.875517,6.057119,-10.932636,-800.000000,-800.000000,-800.000000,-800.000000,-800.000000,-800.000000,3
749201122,0.697708,-10.348701,-11.046410,4.825497,5.872059,-10.697556,-800.000000,-800.000000,-800.000000,-800.000000,-800.000000,-800.000000,3
749203119,0.751400,-10.166740,-10.918140,4.707670,5.834770,-10.542440,-800.000000,-800.000000,-800.000000,-800.000000,-800.000000,-800.000000,3
749205117,0.730896,-9.863377,-10.594273,4.566240,5.662584,-10.228825,-800.000000,-800.000000,-800.000000,-800.000000,-800.000000,-800.000000,3
749207115,0.560665,-9.522057,-10.082722,4.480696,5.321693,-9.802389,-800.000000,-800.000000,-800.000000,-800.000000,-800.000000,-800.000000,3
749209113,0.454330,-9.649277,-10.103607,4.597473,5.278969,-9.876442,-800.000000,-800.000000,-800.000000,-800.000000,-800.000000,-800.000000,3
749211110,0.488091,-9.848309,-10.336399,4.680109,5.412245,-10.092354,-800.000000,-800.000000,-800.000000,-800.000000,-800.000000,-800.000000,3
749213108,0.666714,-9.919262,-10.585976,4.626274,5.626345,-10.252619,-800.000000,-800.000000,-800.000000,-800.000000,-800.000000,-800.000000,3
749215107,0.797272,-10.171795,-10.969067,4.687262,5.883169,-10.570431,-800.000000,-800.000000,-800.000000,-800.000000,-800.000000,-800.000000,3
749217104,0.934410,-10.535717,-11.470127,4.800653,6.202269,-11.002922,-800.000000,-800.000000,-800.000000,-800.000000,-800.000000,-800.000000,3
749219102,0.960732,-10.411453,-11.372185,4.725361,6.166458,-10.891819,-800.000000,-800.000000,-800.000000,-800.000000,-800.000000,-800.000000,3
749221099,0.872993,-10.168457,-11.041451,4.647732,5.957222,-10.604954,-800.000000,-800.000000,-800.000000,-800.000000,-800.000000,-800.000000,3
749223097,0.724220,-10.081863,-10.806084,4.678822,5.765152,-10.443974,-800.000000,-800.000000,-800.000000,-800.000000,-800.000000,-800.000000,3
749225095,0.586319,-9.866714,-10.453033,4.640198,5.519676,-10.159874,-800.000000,-800.000000,-800.000000,-800.000000,-800.000000,-800.000000,3
749227093,0.461102,-9.545135,-10.006237,4.542017,5.233669,-9.775686,-800.000000,-800.000000,-800.000000,-800.000000,-800.000000,-800.000000,3
749229090,0.449944,-9.650326,-10.100269,4.600191,5.275106,-9.875298,-800.000000,-800.000000,-800.000000,-800.000000,-800.000000,-800.000000,3
749231088,0.627422,-9.800625,-10.428047,4.586601,5.527735,-10.114336,-800.000000,-800.000000,-800.000000,-800.000000,-800.000000,-800.000000,3
749233086,0.754356,-9.913635,-10.667992,4.579639,5.711174,-10.290813,-800.000000,-800.000000,-800.000000,-800.000000,-800.000000,-800.000000,3
749235084,0.805473,-10.163498,-10.968971,4.679012,5.887222,-10.566235,-800.000000,-800.000000,-800.000000,-800.000000,-800.000000,-800.000000,3
749237081,0.941563,-10.499954,-11.441517,4.779196,6.191540,-10.970736,-800.000000,-800.000000,-800.000000,-800.000000,-800.000000,-800.000000,3
749239079,0.917721,-10.416603,-11.334324,4.749441,6.126022,-10.875463,-800.000000,-800.000000,-800.000000,-800.000000,-800.000000,-800.000000,3
749241077,0.845623,-10.230637,-11.076260,4.692507,5.960941,-10.653448,-800.000000,-800.000000,-800.000000,-800.000000,-800.000000,-800.000000,3
749243075,0.760078,-10.056877,-10.816956,4.648399,5.788517,-10.436916,-800.000000,-800.000000,-800.000000,-800.000000,-800.000000,-800.000000,3
749245072,0.637722,-9.795284,-10.433006,4.578781,5.535364,-10.114145,-800.000000,-800.000000,-800.000000,-800.000000,-800.000000,-800.000000,3
749247070,0.363541,-9.501553,-9.865093,4.569006,5.114317,-9.683323,-800.000000,-800.000000,-800.000000,-800.000000,-800.000000,-800.000000,3
749249068,0.230217,-9.636974,-9.867191,4.703379,5.048704,-9.752083,-800.000000,-800.000000,-800.000000,-800.000000,-800.000000,-800.000000,3
749251066,0.288582,-9.878731,-10.167313,4.795074,5.227947,-10.023022,-800.000000,-800.000000,-800.000000,-800.000000,-800.000000,-800.000000,3
749253063,0.403786,-10.018253,-10.422039,4.807234,5.412912,-10.220146,-800.000000,-800.000000,-800.000000,-800.000000,-800.000000,-800.000000,3
749255062,0.501919,-10.312176,-10.814095,4.905128,5.658007,-10.563135,-800.000000,-800.000000,-800.000000,-800.000000,-800.000000,-800.000000,3
749257059,0.712109,-10.642624,-11.354733,4.965258,6.033421,-10.998678,-800.000000,-800.000000,-800.000000,-800.000000,-800.000000,-800.000000,3
749259057,0.806332,-10.429668,-11.236000,4.811668,6.021166,-10.832834,-800.000000,-800.000000,-800.000000,-800.000000,-800.000000,-800.000000,3
749261054,0.792217,-10.153103,-10.945320,4.680443,5.868769,-10.549212,-800.000000,-800.000000,-800.000000,-800.000000,-800.000000,-800.000000,3
749263052,0.686646,-10.034752,-10.721397,4.674053,5.704021,-10.378075,-800.000000,-800.000000,-800.000000,-800.000000,-800.000000,-800.000000,3
749265050,0.498867,-9.813595,-10.312462,4.657364,5.405664,-10.063028,-800.000000,-800.000000,-800.000000,-800.000000,-800.000000,-800.000000,3
749267047,0.092125,-9.625816,-9.717941,4.766846,4.905033,-9.671879,-800.000000,-800.000000,-800.000000,-800.000000,-800.000000,-800.000000,3
749269045,0.033665,-9.756851,-9.790516,4.861593,4.912090,-9.773684,-800.000000,-800.000000,-800.000000,-800.000000,-800.000000,-800.000000,3
749271043,0.275517,-9.871387,-10.146904,4.797935,5.211210,-10.009146,-800.000000,-800.000000,-800.000000,-800.000000,-800.000000,-800.000000,3
749273041,0.461960,-9.952927,-10.414886,4.745483,5.438423,-10.183907,-800.000000,-800.000000,-800.000000,-800.000000,-800.000000,-800.000000,3
749275041,0.631905,-10.212708,-10.844612,4.790401,5.738258,-10.528660,-800.000000,-800.000000,-800.000000,-800.000000,-800.000000,-800.000000,3
749277036,0.763798,-10.621262,-11.385059,4.928732,6.074429,-11.003160,-800.000000,-800.000000,-800.000000,-800.000000,-800.000000,-800.000000,3
749279034,0.681877,-10.532188,-11.214066,4.925156,5.947971,-10.873127,-800.000000,-800.000000,-800.000000,-800.000000,-800.000000,-800.000000,3
749281032,0.518703,-10.321522,-10.840225,4.901409,5.679464,-10.580873,-800.000000,-800.000000,-800.000000,-800.000000,-800.000000,-800.000000,3
749283030,0.416851,-10.159016,-10.575867,4.871082,5.496359,-10.367441,-800.000000,-800.000000,-800.000000,-800.000000,-800.000000,-800.000000,3
749285027,0.289249,-9.929085,-10.218334,4.819918,5.253792,-10.073709,-800.000000,-800.000000,-800.000000,-800.000000,-800.000000,-800.000000,3
749287025,0.108337,-9.629440,-9.737778,4.760551,4.923058,-9.683609,-800.000000,-800.000000,-800.000000,-800.000000,-800.000000,-800.000000,3
749289023,0.099659,-9.711933,-9.811592,4.806137,4.955626,-9.761763,-800.000000,-800.000000,-800.000000,-800.000000,-800.000000,-800.000000,3
749291020,0.146294,-9.948063,-10.094357,4.900885,5.120325,-10.021210,-800.000000,-800.000000,-800.000000,-800.000000,-800.000000,-800.000000,3
749293019,0.213718,-10.070801,-10.284519,4.928541,5.249119,-10.177660,-800.000000,-800.000000,-800.000000,-800.000000,-800.000000,-800.000000,3
749295016,0.391674,-10.290718,-10.682392,4.949522,5.537033,-10.486555,-800.000000,-800.000000,-800.000000,-800.000000,-800.000000,-800.000000,3
749297014,0.613308,-10.647488,-11.260796,5.017090,5.937052,-10.954142,-800.000000,-800.000000,-800.000000,-800.000000,-800.000000,-800.000000,3
749299012,0.618839,-10.550117,-11.168957,4.965639,5.893898,-10.859537,-800.000000,-800.000000,-800.000000,-800.000000,-800.000000,-800.000000,3
749301009,0.516796,-10.305786,-10.822582,4.894495,5.669689,-10.564184,-800.000000,-800.000000,-800.000000,-800.000000,-800.000000,-800.000000,3
749303007,0.383186,-10.142231,-10.525417,4.879522,5.454302,-10.333824,-800.000000,-800.000000,-800.000000,-800.000000,-800.000000,-800.000000,3
749305005,0.285912,-9.931755,-10.217667,4.822922,5.251789,-10.074711,-800.000000,-800.000000,-800.000000,-800.000000,-800.000000,-800.000000,3
749307002,0.103855,-9.642887,-9.746742,4.769516,4.925299,-9.694815,-800.000000,-800.000000,-800.000000,-800.000000,-800.000000,-800.000000,3
749309000,0.117874,-9.729671,-9.847546,4.805899,4.982710,-9.788609,-800.000000,-800.000000,-800.000000,-800.000000,-800.000000,-800.000000,3
749310998,0.245857,-9.952259,-10.198116,4.853201,5.221987,-10.075188,-800.000000,-800.000000,-800.000000,-800.000000,-800.000000,-800.000000,3
749312995,0.338936,-10.101223,-10.440159,4.881144,5.389547,-10.270691,-800.000000,-800.000000,-800.000000,-800.000000,-800.000000,-800.000000,3
749314994,0.391388,-10.343933,-10.735321,4.976273,5.563354,-10.539627,-800.000000,-800.000000,-800.000000,-800.000000,-800.000000,-800.000000,3
749316991,0.598145,-10.655975,-11.254120,5.028915,5.926132,-10.955048,-800.000000,-800.000000,-800.000000,-800.000000,-800.000000,-800.000000,3
749318989,0.612831,-10.521317,-11.134148,4.954243,5.873489,-10.827732,-800.000000,-800.000000,-800.000000,-800.000000,-800.000000,-800.000000,3
749320986,0.450611,-10.338116,-10.788727,4.943752,5.619669,-10.563421,-800.000000,-800.000000,-800.000000,-800.000000,-800.000000,-800.000000,3
749322984,0.405598,-10.209084,-10.614681,4.901743,5.510139,-10.411882,-800.000000,-800.000000,-800.000000,-800.000000,-800.000000,-800.000000,3
749324982,0.284290,-9.938622,-10.222912,4.827166,5.253601,-10.080767,-800.000000,-800.000000,-800.000000,-800.000000,-800.000000,-800.000000,3
749326980,0.061989,-9.594536,-9.656525,4.766273,4.859257,-9.625530,-800.000000,-800.000000,-800.000000,-800.000000,-800.000000,-800.000000,3
749328977,-0.020123,-9.700584,-9.680462,4.860353,4.830170,-9.690523,-800.000000,-800.000000,-800.000000,-800.000000,-800.000000,-800.000000,3
749330975,0.017929,-9.972095,-9.990025,4.977083,5.003977,-9.981060,-800.000000,-800.000000,-800.000000,-800.000000,-800.000000,-800.000000,3
749332973,0.136566,-10.107136,-10.243702,4.985285,5.190134,-10.175419,-800.000000,-800.000000,-800.000000,-800.000000,-800.000000,-800.000000,3
749334971,0.258446,-10.330963,-10.589409,5.036259,5.423927,-10.460186,-800.000000,-800.000000,-800.000000,-800.000000,-800.000000,-800.000000,3
749336969,0.444412,-10.676289,-11.120701,5.115938,5.782557,-10.898495,-800.000000,-800.000000,-800.000000,-800.000000,-800.000000,-800.000000,3
749338966,0.450897,-10.583782,-11.034679,5.066442,5.742788,-10.809231,-800.000000,-800.000000,-800.000000,-800.000000,-800.000000,-800.000000,3
749340964,0.326443,-10.401249,-10.727692,5.037403,5.527067,-10.564470,-800.000000,-800.000000,-800.000000,-800.000000,-800.000000,-800.000000,3
749342961,0.259209,-10.261440,-10.520649,5.001116,5.389929,-10.391045,-800.000000,-800.000000,-800.000000,-800.000000,-800.000000,-800.000000,3
749344959,0.224113,-9.968853,-10.192966,4.872370,5.208540,-10.080910,-800.000000,-800.000000,-800.000000,-800.000000,-800.000000,-800.000000,3
749346957,0.099945,-9.612656,-9.712601,4.756355,4.906273,-9.662628,-800.000000,-800.000000,-800.000000,-800.000000,-800.000000,-800.000000,3
749348954,0.120163,-9.663105,-9.783268,4.771471,4.951715,-9.723186,-800.000000,-800.000000,-800.000000,-800.000000,-800.000000,-800.000000,3
749350952,0.234127,-9.876347,-10.110474,4.821110,5.172300,-9.993410,-800.000000,-800.000000,-800.000000,-800.000000,-800.000000,-800.000000,3
749352950,0.257587,-10.099316,-10.356903,4.920864,5.307245,-10.228109,-800.000000,-800.000000,-800.000000,-800.000000,-800.000000,-800.000000,3
749354947,0.388050,-10.319805,-10.707855,4.965878,5.547953,-10.513830,-800.000000,-800.000000,-800.000000,-800.000000,-800.000000,-800.000000,3
749356945,0.574017,-10.615730,-11.189747,5.020857,5.881882,-10.902739,-800.000000,-800.000000,-800.000000,-800.000000,-800.000000,-800.000000,3
749358943,0.520515,-10.550785,-11.071301,5.015135,5.795908,-10.811043,-800.000000,-800.000000,-800.000000,-800.000000,-800.000000,-800.000000,3
749360941,0.364399,-10.361290,-10.725689,4.998446,5.545044,-10.543489,-800.000000,-800.000000,-800.000000,-800.000000,-800.000000,-800.000000,3
749362938,0.370598,-10.167217,-10.537815,4.898310,5.454206,-10.352516,-800.000000,-800.000000,-800.000000,-800.000000,-800.000000,-800.000000,3
749364936,0.320721,-9.895515,-10.216236,4.787397,5.268478,-10.055876,-800.000000,-800.000000,-800.000000,-800.000000,-800.000000,-800.000000,3
749366934,0.121403,-9.576225,-9.697628,4.727411,4.909515,-9.636927,-800.000000,-800.000000,-800.000000,-800.000000,-800.000000,-800.000000,3
749368931,-0.013447,-9.722424,-9.708977,4.867935,4.847765,-9.715700,-800.000000,-800.000000,-800.000000,-800.000000,-800.000000,-800.000000,3
749370929,0.008488,-9.959221,-9.967709,4.975367,4.988098,-9.963465,-800.000000,-800.000000,-800.000000,-800.000000,-800.000000,-800.000000,3
749372927,0.138187,-10.075092,-10.213280,4.968452,5.175734,-10.144186,-800.000000,-800.000000,-800.000000,-800.000000,-800.000000,-800.000000,3
749374925,0.349617,-10.232353,-10.581970,4.941368,5.465794,-10.407162,-800.000000,-800.000000,-800.000000,-800.000000,-800.000000,-800.000000,3
749376923,0.512028,-10.633278,-11.145306,5.060625,5.828667,-10.889292,-800.000000,-800.000000,-800.000000,-800.000000,-800.000000,-800.000000,3
749378920,0.565338,-10.575771,-11.141109,5.005217,5.853224,-10.858440,-800.000000,-800.000000,-800.000000,-800.000000,-800.000000,-800.000000,3
749380918,0.528431,-10.282230,-10.810661,4.876900,5.669546,-10.546446,-800.000000,-800.000000,-800.000000,-800.000000,-800.000000,-800.000000,3
749382916,0.440884,-10.134602,-10.575485,4.846859,5.508184,-10.355043,-800.000000,-800.000000,-800.000000,-800.000000,-800.000000,-800.000000,3
749384913,0.265312,-9.933376,-10.198689,4.834032,5.232000,-10.066032,-800.000000,-800.000000,-800.000000,-800.000000,-800.000000,-800.000000,3
749386911,-0.027657,-9.646606,-9.618950,4.837132,4.795647,-9.632778,-800.000000,-800.000000,-800.000000,-800.000000,-800.000000,-800.000000,3
749388909,-0.038052,-9.656429,-9.618378,4.847240,4.790163,-9.637403,-800.000000,-800.000000,-800.000000,-800.000000,-800.000000,-800.000000,3
749390907,0.128651,-9.823418,-9.952068,4.847383,5.040359,-9.887743,-800.000000,-800.000000,-800.000000,-800.000000,-800.000000,-800.000000,3
749392904,0.266933,-10.004902,-10.271835,4.868984,5.269384,-10.138369,-800.000000,-800.000000,-800.000000,-800.000000,-800.000000,-800.000000,3
749394905,0.371742,-10.279560,-10.651302,4.953909,5.511522,-10.465431,-800.000000,-800.000000,-800.000000,-800.000000,-800.000000,-800.000000,3
749396900,0.567055,-10.589218,-11.156273,5.011082,5.861664,-10.872746,-800.000000,-800.000000,-800.000000,-800.000000,-800.000000,-800.000000,3
749398898,0.574970,-10.521317,-11.096287,4.973173,5.835629,-10.808802,-800.000000,-800.000000,-800.000000,-800.000000,-800.000000,-800.000000,3
749400895,0.447178,-10.309029,-10.756207,4.930925,5.601692,-10.532618,-800.000000,-800.000000,-800.000000,-800.000000,-800.000000,-800.000000,3
749402893,0.336170,-10.139561,-10.475731,4.901695,5.405951,-10.307646,-800.000000,-800.000000,-800.000000,-800.000000,-800.000000,-800.000000,3
749404891,0.174904,-9.902668,-10.077572,4.863882,5.126238,-9.990120,-800.000000,-800.000000,-800.000000,-800.000000,-800.000000,-800.000000,3
749406889,-0.015354,-9.570694,-9.555340,4.793024,4.769993,-9.563017,-800.000000,-800.000000,-800.000000,-800.000000,-800.000000,-800.000000,3
749408886,-0.085735,-9.677792,-9.592056,4.881763,4.753160,-9.634924,-800.000000,-800.000000,-800.000000,-800.000000,-800.000000,-800.000000,3
749410884,-0.086498,-9.953785,-9.867287,5.020142,4.890394,-9.910536,-800.000000,-800.000000,-800.000000,-800.000000,-800.000000,-800.000000,3
749412882,0.005817,-10.105515,-10.111332,5.049849,5.058575,-10.108423,-800.000000,-800.000000,-800.000000,-800.000000,-800.000000,-800.000000,3
749414881,0.185776,-10.290909,-10.476685,5.052567,5.331230,-10.383797,-800.000000,-800.000000,-800.000000,-800.000000,-800.000000,-800.000000,3
749416877,0.371361,-10.689259,-11.060619,5.158949,5.715990,-10.874939,-800.000000,-800.000000,-800.000000,-800.000000,-800.000000,-800.000000,3
749418875,0.405788,-10.633945,-11.039734,5.114079,5.722761,-10.836840,-800.000000,-800.000000,-800.000000,-800.000000,-800.000000,-800.000000,3
749420873,0.351810,-10.396767,-10.748577,5.022478,5.550194,-10.572672,-800.000000,-800.000000,-800.000000,-800.000000,-800.000000,-800.000000,3
749422870,0.288105,-10.245991,-10.534096,4.978943,5.411100,-10.390043,-800.000000,-800.000000,-800.000000,-800.000000,-800.000000,-800.000000,3
749424868,0.194931,-10.007477,-10.202408,4.906273,5.198669,-10.104942,-800.000000,-800.000000,-800.000000,-800.000000,-800.000000,-800.000000,3
749426866,0.045681,-9.633160,-9.678841,4.793739,4.862261,-9.656000,-800.000000,-800.000000,-800.000000,-800.000000,-800.000000,-800.000000,3
749428863,0.048065,-9.690952,-9.739017,4.821444,4.893541,-9.714985,-800.000000,-800.000000,-800.000000,-800.000000,-800.000000,-800.000000,3
749430861,0.159931,-9.895515,-10.055447,4.867792,5.107689,-9.975481,-800.000000,-800.000000,-800.000000,-800.000000,-800.000000,-800.000000,3
749432859,0.292015,-9.967327,-10.259342,4.837656,5.275679,-10.113335,-800.000000,-800.000000,-800.000000,-800.000000,-800.000000,-800.000000,3
749434857,0.394726,-10.149193,-10.543919,4.877234,5.469322,-10.346556,-800.000000,-800.000000,-800.000000,-800.000000,-800.000000,-800.000000,3
749436855,0.524330,-10.523224,-11.047554,4.999447,5.785942,-10.785389,-800.000000,-800.000000,-800.000000,-800.000000,-800.000000,-800.000000,3
749438852,0.524807,-10.507584,-11.032391,4.991388,5.778599,-10.769987,-800.000000,-800.000000,-800.000000,-800.000000,-800.000000,-800.000000,3
749440850,0.360775,-10.381317,-10.742092,5.010271,5.551434,-10.561705,-800.000000,-800.000000,-800.000000,-800.000000,-800.000000,-800.000000,3
749442848,0.217533,-10.269070,-10.486603,5.025768,5.352068,-10.377836,-800.000000,-800.000000,-800.000000,-800.000000,-800.000000,-800.000000,3
749444846,0.059700,-10.048771,-10.108471,4.994535,5.084085,-10.078621,-800.000000,-800.000000,-800.000000,-800.000000,-800.000000,-800.000000,3
749446843,-0.188446,-9.683323,-9.494877,4.935884,4.653215,-9.589100,-800.000000,-800.000000,-800.000000,-800.000000,-800.000000,-800.000000,3
749448841,-0.162792,-9.701347,-9.538555,4.932070,4.687881,-9.619951,-800.000000,-800.000000,-800.000000,-800.000000,-800.000000,-800.000000,3
749450839,-0.081253,-9.918880,-9.837627,5.000067,4.878187,-9.878254,-800.000000,-800.000000,-800.000000,-800.000000,-800.000000,-800.000000,3
749452837,0.094318,-10.027981,-10.122299,4.966831,5.108309,-10.075140,-800.000000,-800.000000,-800.000000,-800.000000,-800.000000,-800.000000,3
749454835,0.316143,-10.194016,-10.510159,4.938936,5.413151,-10.352087,-800.000000,-800.000000,-800.000000,-800.000000,-800.000000,-800.000000,3
749456832,0.540924,-10.529137,-11.070061,4.994106,5.805492,-10.799599,-800.000000,-800.000000,-800.000000,-800.000000,-800.000000,-800.000000,3
749458830,0.580692,-10.473633,-11.054325,4.946470,5.817509,-10.763979,-800.000000,-800.000000,-800.000000,-800.000000,-800.000000,-800.000000,3
749460828,0.538731,-10.218334,-10.757065,4.839802,5.647898,-10.487700,-800.000000,-800.000000,-800.000000,-800.000000,-800.000000,-800.000000,3
749462826,0.463295,-10.108852,-10.572147,4.822779,5.517721,-10.340500,-800.000000,-800.000000,-800.000000,-800.000000,-800.000000,-800.000000,3
749464823,0.336742,-9.912586,-10.249329,4.787922,5.293036,-10.080957,-800.000000,-800.000000,-800.000000,-800.000000,-800.000000,-800.000000,3
749466821,0.102043,-9.597015,-9.699059,4.747486,4.900551,-9.648037,-800.000000,-800.000000,-800.000000,-800.000000,-800.000000,-800.000000,3
749468819,-0.059795,-9.748459,-9.688663,4.904127,4.814434,-9.718561,-800.000000,-800.000000,-800.000000,-800.000000,-800.000000,-800.000000,3
749470817,-0.011063,-9.977245,-9.966183,4.994154,4.977560,-9.971714,-800.000000,-800.000000,-800.000000,-800.000000,-800.000000,-800.000000,3
749472814,0.106144,-10.079098,-10.185242,4.986477,5.145693,-10.132170,-800.000000,-800.000000,-800.000000,-800.000000,-800.000000,-800.000000,3
749474812,0.102806,-10.287380,-10.390186,5.092287,5.246496,-10.338783,-800.000000,-800.000000,-800.000000,-800.000000,-800.000000,-800.000000,3
749476810,0.256634,-10.665512,-10.922146,5.204439,5.589390,-10.793829,-800.000000,-800.000000,-800.000000,-800.000000,-800.000000,-800.000000,3
749478808,0.394249,-10.559750,-10.953999,5.082750,5.674124,-10.756874,-800.000000,-800.000000,-800.000000,-800.000000,-800.000000,-800.000000,3
749480806,0.426102,-10.309887,-10.735989,4.941893,5.581045,-10.522938,-800.000000,-800.000000,-800.000000,-800.000000,-800.000000,-800.000000,3
749482804,0.418949,-10.171700,-10.590649,4.876375,5.504799,-10.381174,-800.000000,-800.000000,-800.000000,-800.000000,-800.000000,-800.000000,3
749484802,0.360394,-9.920311,-10.280704,4.779959,5.320549,-10.100508,-800.000000,-800.000000,-800.000000,-800.000000,-800.000000,-800.000000,3
749486799,0.183678,-9.584808,-9.768486,4.700565,4.976082,-9.676647,-800.000000,-800.000000,-800.000000,-800.000000,-800.000000,-800.000000,3
749488797,0.114250,-9.640694,-9.754944,4.763222,4.934597,-9.697819,-800.000000,-800.000000,-800.000000,-800.000000,-800.000000,-800.000000,3
749490795,0.157452,-9.848309,-10.005760,4.845428,5.081606,-9.927034,-800.000000,-800.000000,-800.000000,-800.000000,-800.000000,-800.000000,3
749492793,0.146961,-10.013580,-10.160542,4.933310,5.153751,-10.087061,-800.000000,-800.000000,-800.000000,-800.000000,-800.000000,-800.000000,3
749494797,0.028324,-10.394096,-10.422421,5.182886,5.225372,-10.408258,-800.000000,-800.000000,-800.000000,-800.000000,-800.000000,-800.000000,3
749496789,0.156784,-10.785866,-10.942650,5.314541,5.549717,-10.864258,-800.000000,-800.000000,-800.000000,-800.000000,-800.000000,-800.000000,3
749498786,0.262547,-10.677338,-10.939884,5.207396,5.601215,-10.808611,-800.000000,-800.000000,-800.000000,-800.000000,-800.000000,-800.000000,3
749500784,0.267792,-10.423851,-10.691643,5.078030,5.479717,-10.557747,-800.000000,-800.000000,-800.000000,-800.000000,-800.000000,-800.000000,3
749502782,0.206757,-10.275078,-10.481834,5.034161,5.344296,-10.378456,-800.000000,-800.000000,-800.000000,-800.000000,-800.000000,-800.000000,3
749504779,0.156975,-10.009384,-10.166359,4.926205,5.161667,-10.087872,-800.000000,-800.000000,-800.000000,-800.000000,-800.000000,-800.000000,3
749506777,0.029469,-9.621716,-9.651184,4.796124,4.840326,-9.636450,-800.000000,-800.000000,-800.000000,-800.000000,-800.000000,-800.000000,3
749508775,0.033379,-9.660339,-9.693718,4.813480,4.863548,-9.677029,-800.000000,-800.000000,-800.000000,-800.000000,-800.000000,-800.000000,3
749510772,0.020123,-9.989929,-10.010052,4.984903,5.015087,-9.999990,-800.000000,-800.000000,-800.000000,-800.000000,-800.000000,-800.000000,3
749512770,0.018978,-10.218430,-10.237408,5.099726,5.128193,-10.227919,-800.000000,-800.000000,-800.000000,-800.000000,-800.000000,-800.000000,3
749514769,0.215912,-10.335732,-10.551643,5.059910,5.383778,-10.443687,-800.000000,-800.000000,-800.000000,-800.000000,-800.000000,-800.000000,3
749516766,0.466633,-10.637569,-11.104202,5.085468,5.785418,-10.870886,-800.000000,-800.000000,-800.000000,-800.000000,-800.000000,-800.000000,3
749518763,0.544262,-10.572529,-11.116791,5.014133,5.830526,-10.844660,-800.000000,-800.000000,-800.000000,-800.000000,-800.000000,-800.000000,3
749520761,0.470161,-10.333824,-10.803986,4.931831,5.637074,-10.568905,-800.000000,-800.000000,-800.000000,-800.000000,-800.000000,-800.000000,3
749522759,0.357533,-10.145473,-10.503006,4.893970,5.430269,-10.324240,-800.000000,-800.000000,-800.000000,-800.000000,-800.000000,-800.000000,3
749524757,0.130844,-9.957695,-10.088539,4.913425,5.109692,-10.023117,-800.000000,-800.000000,-800.000000,-800.000000,-800.000000,-800.000000,3
749526754,-0.115013,-9.644985,-9.529972,4.879999,4.707479,-9.587479,-800.000000,-800.000000,-800.000000,-800.000000,-800.000000,-800.000000,3
749528752,-0.147152,-9.722805,-9.575653,4.934978,4.714251,-9.649229,-800.000000,-800.000000,-800.000000,-800.000000,-800.000000,-800.000000,3
749530750,-0.048733,-9.956455,-9.907722,5.002594,4.929495,-9.932089,-800.000000,-800.000000,-800.000000,-800.000000,-800.000000,-800.000000,3
749532748,0.034237,-10.084057,-10.118294,5.024910,5.076265,-10.101175,-800.000000,-800.000000,-800.000000,-800.000000,-800.000000,-800.000000,3
749534747,0.199890,-10.288811,-10.488701,5.044460,5.344296,-10.388756,-800.000000,-800.000000,-800.000000,-800.000000,-800.000000,-800.000000,3
749536743,0.497246,-10.626888,-11.124134,5.064821,5.810690,-10.875511,-800.000000,-800.000000,-800.000000,-800.000000,-800.000000,-800.000000,3
749538741,0.530148,-10.604572,-11.134720,5.037212,5.832434,-10.869646,-800.000000,-800.000000,-800.000000,-800.000000,-800.000000,-800.000000,3
749540739,0.446415,-10.380650,-10.827065,4.967117,5.636740,-10.603857,-800.000000,-800.000000,-800.000000,-800.000000,-800.000000,-800.000000,3
749542736,0.372791,-10.223579,-10.596371,4.925394,5.484581,-10.409975,-800.000000,-800.000000,-800.000000,-800.000000,-800.000000,-800.000000,3
749544734,0.240707,-10.005665,-10.246372,4.882479,5.243540,-10.126019,-800.000000,-800.000000,-800.000000,-800.000000,-800.000000,-800.000000,3
749546732,-0.019932,-9.674358,-9.654427,4.847145,4.817247,-9.664392,-800.000000,-800.000000,-800.000000,-800.000000,-800.000000,-800.000000,3
749548730,-0.152111,-9.735012,-9.582901,4.943562,4.715395,-9.658957,-800.000000,-800.000000,-800.000000,-800.000000,-800.000000,-800.000000,3
749550727,-0.097847,-9.967232,-9.869385,5.032539,4.885769,-9.918308,-800.000000,-800.000000,-800.000000,-800.000000,-800.000000,-800.000000,3
749552725,0.040054,-10.100937,-10.140991,5.030441,5.090523,-10.120964,-800.000000,-800.000000,-800.000000,-800.000000,-800.000000,-800.000000,3
749554723,0.202751,-10.300350,-10.503101,5.048800,5.352926,-10.401726,-800.000000,-800.000000,-800.000000,-800.000000,-800.000000,-800.000000,3
749556721,0.413036,-10.682583,-11.095619,5.134773,5.754328,-10.889101,-800.000000,-800.000000,-800.000000,-800.000000,-800.000000,-800.000000,3
749558718,0.440216,-10.645962,-11.086178,5.102873,5.763197,-10.866070,-800.000000,-800.000000,-800.000000,-800.000000,-800.000000,-800.000000,3
749560716,0.375843,-10.421276,-10.797119,5.022717,5.586481,-10.609198,-800.000000,-800.000000,-800.000000,-800.000000,-800.000000,-800.000000,3
749562714,0.343227,-10.229492,-10.572720,4.943132,5.457973,-10.401106,-800.000000,-800.000000,-800.000000,-800.000000,-800.000000,-800.000000,3
749564711,0.243950,-9.965229,-10.209179,4.860640,5.226564,-10.087204,-800.000000,-800.000000,-800.000000,-800.000000,-800.000000,-800.000000,3
749566709,0.087357,-9.573269,-9.660625,4.742956,4.873991,-9.616947,-800.000000,-800.000000,-800.000000,-800.000000,-800.000000,-800.000000,3
749568707,-0.085068,-9.686852,-9.601784,4.885960,4.758358,-9.644318,-800.000000,-800.000000,-800.000000,-800.000000,-800.000000,-800.000000,3
749570705,-0.148869,-9.982014,-9.833145,5.065441,4.842138,-9.907579,-800.000000,-800.000000,-800.000000,-800.000000,-800.000000,-800.000000,3
749572702,-0.070953,-10.115719,-10.044765,5.093336,4.986906,-10.080242,-800.000000,-800.000000,-800.000000,-800.000000,-800.000000,-800.000000,3
749574700,0.066662,-10.293388,-10.360050,5.113363,5.213356,-10.326719,-800.000000,-800.000000,-800.000000,-800.000000,-800.000000,-800.000000,3
749576698,0.293255,-10.666180,-10.959435,5.186462,5.626345,-10.812807,-800.000000,-800.000000,-800.000000,-800.000000,-800.000000,-800.000000,3
749578696,0.361252,-10.647964,-11.009216,5.143356,5.685234,-10.828590,-800.000000,-800.000000,-800.000000,-800.000000,-800.000000,-800.000000,3
749580694,0.309849,-10.414696,-10.724545,5.052423,5.517197,-10.569620,-800.000000,-800.000000,-800.000000,-800.000000,-800.000000,-800.000000,3
749582692,0.242329,-10.241890,-10.484219,4.999781,5.363274,-10.363054,-800.000000,-800.000000,-800.000000,-800.000000,-800.000000,-800.000000,3
749584690,0.110912,-9.998035,-10.108948,4.943562,5.109930,-10.053492,-800.000000,-800.000000,-800.000000,-800.000000,-800.000000,-800.000000,3
749586687,-0.096989,-9.609604,-9.512615,4.853296,4.707813,-9.561110,-800.000000,-800.000000,-800.000000,-800.000000,-800.000000,-800.000000,3
749588685,-0.113106,-9.622097,-9.508991,4.867601,4.697943,-9.565544,-800.000000,-800.000000,-800.000000,-800.000000,-800.000000,-800.000000,3
749590683,-0.013256,-9.823990,-9.810734,4.918623,4.898739,-9.817362,-800.000000,-800.000000,-800.000000,-800.000000,-800.000000,-800.000000,3
749592681,0.062847,-9.967041,-10.029888,4.952097,5.046368,-9.998465,-800.000000,-800.000000,-800.000000,-800.000000,-800.000000,-800.000000,3
749594681,0.203419,-10.144615,-10.348034,4.970598,5.275726,-10.246325,-800.000000,-800.000000,-800.000000,-800.000000,-800.000000,-800.000000,3
749596677,0.422001,-10.489655,-10.911655,5.033827,5.666828,-10.700655,-800.000000,-800.000000,-800.000000,-800.000000,-800.000000,-800.000000,3
749598674,0.478840,-10.419750,-10.898590,4.970455,5.688715,-10.659170,-800.000000,-800.000000,-800.000000,-800.000000,-800.000000,-800.000000,3
749600672,0.471497,-10.149097,-10.620594,4.838800,5.546045,-10.384846,-800.000000,-800.000000,-800.000000,-800.000000,-800.000000,-800.000000,3
749602670,0.401306,-9.984398,-10.385704,4.791546,5.393505,-10.185051,-800.000000,-800.000000,-800.000000,-800.000000,-800.000000,-800.000000,3
749604667,0.300789,-9.784889,-10.085678,4.742050,5.193233,-9.935284,-800.000000,-800.000000,-800.000000,-800.000000,-800.000000,-800.000000,3
749606665,0.026512,-9.483719,-9.510231,4.728603,4.768372,-9.496975,-800.000000,-800.000000,-800.000000,-800.000000,-800.000000,-800.000000,3
749608663,-0.095463,-9.556198,-9.460735,4.825830,4.682636,-9.508467,-800.000000,-800.000000,-800.000000,-800.000000,-800.000000,-800.000000,3
749610661,0.029850,-9.727669,-9.757519,4.848909,4.893684,-9.742594,-800.000000,-800.000000,-800.000000,-800.000000,-800.000000,-800.000000,3
749612659,0.159550,-9.817505,-9.977055,4.828978,5.068302,-9.897280,-800.000000,-800.000000,-800.000000,-800.000000,-800.000000,-800.000000,3
749614658,0.279808,-10.020924,-10.300732,4.870558,5.290270,-10.160828,-800.000000,-800.000000,-800.000000,-800.000000,-800.000000,-800.000000,3
749616655,0.501347,-10.373116,-10.874462,4.935884,5.687904,-10.623789,-800.000000,-800.000000,-800.000000,-800.000000,-800.000000,-800.000000,3
749618652,0.565624,-10.358810,-10.924435,4.896593,5.745029,-10.641623,-800.000000,-800.000000,-800.000000,-800.000000,-800.000000,-800.000000,3
749620650,0.447273,-10.154533,-10.601807,4.853630,5.524540,-10.378170,-800.000000,-800.000000,-800.000000,-800.000000,-800.000000,-800.000000,3
749622647,0.316048,-10.045433,-10.361481,4.864693,5.338764,-10.203457,-800.000000,-800.000000,-800.000000,-800.000000,-800.000000,-800.000000,3
749624645,0.134277,-9.960365,-10.094643,4.913044,5.114460,-10.027504,-800.000000,-800.000000,-800.000000,-800.000000,-800.000000,-800.000000,3
749626643,-0.086594,-9.635830,-9.549236,4.861212,4.731321,-9.592533,-800.000000,-800.000000,-800.000000,-800.000000,-800.000000,-800.000000,3
749628641,-0.083828,-9.616280,-9.532452,4.850054,4.724312,-9.574366,-800.000000,-800.000000,-800.000000,-800.000000,-800.000000,-800.000000,3
749630639,0.027370,-9.811401,-9.838772,4.892015,4.933071,-9.825087,-800.000000,-800.000000,-800.000000,-800.000000,-800.000000,-800.000000,3
749632636,0.204277,-9.932327,-10.136604,4.864025,5.170441,-10.034466,-800.000000,-800.000000,-800.000000,-800.000000,-800.000000,-800.000000,3
749634634,0.308800,-10.167313,-10.476112,4.929256,5.392456,-10.321712,-800.000000,-800.000000,-800.000000,-800.000000,-800.000000,-800.000000,3
749636632,0.467110,-10.542488,-11.009598,5.037689,5.738354,-10.776043,-800.000000,-800.000000,-800.000000,-800.000000,-800.000000,-800.000000,3
749638630,0.558186,-10.552502,-11.110687,4.997158,5.834436,-10.831594,-800.000000,-800.000000,-800.000000,-800.000000,-800.000000,-800.000000,3
749640628,0.438309,-10.413837,-10.852146,4.987764,5.645227,-10.632992,-800.000000,-800.000000,-800.000000,-800.000000,-800.000000,-800.000000,3
749642625,0.269413,-10.280037,-10.549450,5.005312,5.409431,-10.414743,-800.000000,-800.000000,-800.000000,-800.000000,-800.000000,-800.000000,3
749644623,0.193787,-10.014629,-10.208416,4.910421,5.201101,-10.111523,-800.000000,-800.000000,-800.000000,-800.000000,-800.000000,-800.000000,3
749646621,-0.013065,-9.647751,-9.634686,4.830408,4.810810,-9.641218,-800.000000,-800.000000,-800.000000,-800.000000,-800.000000,-800.000000,3
749648619,-0.121021,-9.722042,-9.601021,4.921532,4.740000,-9.661531,-800.000000,-800.000000,-800.000000,-800.000000,-800.000000,-800.000000,3
749650616,-0.061607,-9.936142,-9.874535,4.998875,4.906464,-9.905338,-800.000000,-800.000000,-800.000000,-800.000000,-800.000000,-800.000000,3
749652614,0.021076,-10.086823,-10.107899,5.032873,5.064487,-10.097361,-800.000000,-800.000000,-800.000000,-800.000000,-800.000000,-800.000000,3
749654612,0.180721,-10.306454,-10.487175,5.062866,5.333948,-10.396814,-800.000000,-800.000000,-800.000000,-800.000000,-800.000000,-800.000000,3
749656610,0.418282,-10.668659,-11.086941,5.125189,5.752611,-10.877800,-800.000000,-800.000000,-800.000000,-800.000000,-800.000000,-800.000000,3
749658607,0.478363,-10.620308,-11.098671,5.070972,5.788517,-10.859489,-800.000000,-800.000000,-800.000000,-800.000000,-800.000000,-800.000000,3
749660605,0.411129,-10.383987,-10.795116,4.986429,5.603123,-10.589552,-800.000000,-800.000000,-800.000000,-800.000000,-800.000000,-800.000000,3
749662603,0.277615,-10.274982,-10.552597,4.998684,5.415106,-10.413790,-800.000000,-800.000000,-800.000000,-800.000000,-800.000000,-800.000000,3
749664601,0.085258,-10.151768,-10.237026,5.033255,5.161142,-10.194397,-800.000000,-800.000000,-800.000000,-800.000000,-800.000000,-800.000000,3
749666598,-0.145149,-9.801483,-9.656334,4.973316,4.755592,-9.728909,-800.000000,-800.000000,-800.000000,-800.000000,-800.000000,-800.000000,3
749668596,-0.162220,-9.791279,-9.629059,4.976749,4.733419,-9.710169,-800.000000,-800.000000,-800.000000,-800.000000,-800.000000,-800.000000,3
749670594,-0.046349,-10.000324,-9.953976,5.023336,4.953814,-9.977150,-800.000000,-800.000000,-800.000000,-800.000000,-800.000000,-800.000000,3
749672592,0.051975,-10.138607,-10.190582,5.043316,5.121279,-10.164595,-800.000000,-800.000000,-800.000000,-800.000000,-800.000000,-800.000000,3
749674589,0.202942,-10.306549,-10.509491,5.051804,5.356216,-10.408020,-800.000000,-800.000000,-800.000000,-800.000000,-800.000000,-800.000000,3
749676587,0.485516,-10.658360,-11.143875,5.086422,5.814695,-10.901117,-800.000000,-800.000000,-800.000000,-800.000000,-800.000000,-800.000000,3
749678585,0.536537,-10.632610,-11.169147,5.048037,5.852842,-10.900879,-800.000000,-800.000000,-800.000000,-800.000000,-800.000000,-800.000000,3
749680583,0.433350,-10.407829,-10.841179,4.987240,5.637264,-10.624504,-800.000000,-800.000000,-800.000000,-800.000000,-800.000000,-800.000000,3
749682580,0.268936,-10.283184,-10.552120,5.007124,5.410528,-10.417652,-800.000000,-800.000000,-800.000000,-800.000000,-800.000000,-800.000000,3
749684578,0.059414,-10.167599,-10.227013,5.054092,5.143213,-10.197306,-800.000000,-800.000000,-800.000000,-800.000000,-800.000000,-800.000000,3
749686576,-0.136280,-9.828663,-9.692383,4.982471,4.778051,-9.760523,-800.000000,-800.000000,-800.000000,-800.000000,-800.000000,-800.000000,3
749688574,-0.179672,-9.812069,-9.632397,4.995871,4.726362,-9.722233,-800.000000,-800.000000,-800.000000,-800.000000,-800.000000,-800.000000,3
749690572,-0.090790,-10.035610,-9.944820,5.063200,4.927015,-9.990215,-800.000000,-800.000000,-800.000000,-800.000000,-800.000000,-800.000000,3
749692570,0.061512,-10.159111,-10.220623,5.048800,5.141068,-10.189867,-800.000000,-800.000000,-800.000000,-800.000000,-800.000000,-800.000000,3
749694570,0.226879,-10.311985,-10.538864,5.042553,5.382872,-10.425425,-800.000000,-800.000000,-800.000000,-800.000000,-800.000000,-800.000000,3
749696566,0.439930,-10.680866,-11.120796,5.120468,5.780363,-10.900831,-800.000000,-800.000000,-800.000000,-800.000000,-800.000000,-800.000000,3
749698563,0.456619,-10.682487,-11.139107,5.112934,5.797863,-10.910797,-800.000000,-800.000000,-800.000000,-800.000000,-800.000000,-800.000000,3
749700561,0.355148,-10.456467,-10.811615,5.050659,5.583382,-10.634041,-800.000000,-800.000000,-800.000000,-800.000000,-800.000000,-800.000000,3
749702559,0.301170,-10.316849,-10.618019,5.007839,5.459595,-10.467434,-800.000000,-800.000000,-800.000000,-800.000000,-800.000000,-800.000000,3
749704557,0.167656,-10.130024,-10.297680,4.981184,5.232668,-10.213852,-800.000000,-800.000000,-800.000000,-800.000000,-800.000000,-800.000000,3
749706555,-0.087357,-9.798336,-9.710979,4.942846,4.811811,-9.754658,-800.000000,-800.000000,-800.000000,-800.000000,-800.000000,-800.000000,3
749708552,-0.157928,-9.845638,-9.687710,5.001783,4.764891,-9.766674,-800.000000,-800.000000,-800.000000,-800.000000,-800.000000,-800.000000,3
749710550,-0.063992,-10.040188,-9.976196,5.052090,4.956102,-10.008192,-800.000000,-800.000000,-800.000000,-800.000000,-800.000000,-800.000000,3
749712548,-0.021267,-10.150242,-10.128975,5.085754,5.053854,-10.139608,-800.000000,-800.000000,-800.000000,-800.000000,-800.000000,-800.000000,3
749714547,0.064659,-10.276699,-10.341358,5.106020,5.203009,-10.309029,-800.000000,-800.000000,-800.000000,-800.000000,-800.000000,-800.000000,3
749716543,0.263977,-10.630798,-10.894775,5.183411,5.579376,-10.762787,-800.000000,-800.000000,-800.000000,-800.000000,-800.000000,-800.000000,3
749718541,0.313854,-10.611439,-10.925293,5.148792,5.619574,-10.768366,-800.000000,-800.000000,-800.000000,-800.000000,-800.000000,-800.000000,3
749720539,0.307560,-10.299873,-10.607433,4.996157,5.457497,-10.453653,-800.000000,-800.000000,-800.000000,-800.000000,-800.000000,-800.000000,3
749722536,0.221634,-10.130119,-10.351753,4.954243,5.286694,-10.240936,-800.000000,-800.000000,-800.000000,-800.000000,-800.000000,-800.000000,3
749724534,0.133038,-9.897327,-10.030365,4.882145,5.081701,-9.963846,-800.000000,-800.000000,-800.000000,-800.000000,-800.000000,-800.000000,3
749726532,-0.033569,-9.447765,-9.414196,4.740667,4.690313,-9.430981,-800.000000,-800.000000,-800.000000,-800.000000,-800.000000,-800.000000,3
749728529,-0.075722,-9.374332,-9.298611,4.725027,4.611444,-9.336472,-800.000000,-800.000000,-800.000000,-800.000000,-800.000000,-800.000000,3
749730527,0.056076,-9.500599,-9.556675,4.722261,4.806376,-9.528637,-800.000000,-800.000000,-800.000000,-800.000000,-800.000000,-800.000000,3
749732525,0.166702,-9.605122,-9.771824,4.719210,4.969263,-9.688473,-800.000000,-800.000000,-800.000000,-800.000000,-800.000000,-800.000000,3
749734523,0.336456,-9.703159,-10.039616,4.683352,5.188036,-9.871387,-800.000000,-800.000000,-800.000000,-800.000000,-800.000000,-800.000000,3
749736521,0.615978,-9.950352,-10.566330,4.667187,5.591154,-10.258341,-800.000000,-800.000000,-800.000000,-800.000000,-800.000000,-800.000000,3
749738518,0.757504,-9.836388,-10.593891,4.539442,5.675697,-10.215139,-800.000000,-800.000000,-800.000000,-800.000000,-800.000000,-800.000000,3
749740516,0.724411,-9.529591,-10.254002,4.402590,5.489206,-9.891796,-800.000000,-800.000000,-800.000000,-800.000000,-800.000000,-800.000000,3
749742514,0.675011,-9.291458,-9.966469,4.308224,5.320740,-9.628963,-800.000000,-800.000000,-800.000000,-800.000000,-800.000000,-800.000000,3
749744512,0.606537,-9.051514,-9.658051,4.222488,5.132294,-9.354782,-800.000000,-800.000000,-800.000000,-800.000000,-800.000000,-800.000000,3
749746510,0.435925,-8.710384,-9.146309,4.137230,4.791117,-8.928347,-800.000000,-800.000000,-800.000000,-800.000000,-800.000000,-800.000000,3
749748507,0.382519,-8.856583,-9.239101,4.237032,4.810810,-9.047842,-800.000000,-800.000000,-800.000000,-800.000000,-800.000000,-800.000000,3
749750505,0.461483,-9.286785,-9.748268,4.412651,5.104876,-9.517527,-800.000000,-800.000000,-800.000000,-800.000000,-800.000000,-800.000000,3
749752503,0.527954,-9.631824,-10.159779,4.551935,5.343866,-9.895802,-800.000000,-800.000000,-800.000000,-800.000000,-800.000000,-800.000000,3
749754501,0.664902,-10.088634,-10.753536,4.711866,5.709219,-10.421085,-800.000000,-800.000000,-800.000000,-800.000000,-800.000000,-800.000000,3
749756499,0.894547,-10.819626,-11.714172,4.962540,6.304359,-11.266899,-800.000000,-800.000000,-800.000000,-800.000000,-800.000000,-800.000000,3
749758496,0.900555,-11.232090,-12.132645,5.165768,6.516600,-11.682367,-800.000000,-800.000000,-800.000000,-800.000000,-800.000000,-800.000000,3
749760494,0.666523,-11.295414,-11.961937,5.314445,6.314230,-11.628675,-800.000000,-800.000000,-800.000000,-800.000000,-800.000000,-800.000000,3
749762492,0.483418,-11.229706,-11.713123,5.373144,6.098270,-11.471415,-800.000000,-800.000000,-800.000000,-800.000000,-800.000000,-800.000000,3
749764490,0.325966,-11.019516,-11.345482,5.346775,5.835724,-11.182499,-800.000000,-800.000000,-800.000000,-800.000000,-800.000000,-800.000000,3
749766487,0.090694,-10.579395,-10.670090,5.244350,5.380392,-10.624743,-800.000000,-800.000000,-800.000000,-800.000000,-800.000000,-800.000000,3
749768485,0.010586,-10.468483,-10.479069,5.228949,5.244827,-10.473776,-800.000000,-800.000000,-800.000000,-800.000000,-800.000000,-800.000000,3
749770483,0.076389,-10.553837,-10.630226,5.238724,5.353308,-10.592031,-800.000000,-800.000000,-800.000000,-800.000000,-800.000000,-800.000000,3
749772481,0.146961,-10.564518,-10.711479,5.208778,5.429220,-10.637999,-800.000000,-800.000000,-800.000000,-800.000000,-800.000000,-800.000000,3
749774479,0.271130,-10.615921,-10.887051,5.172396,5.579090,-10.751486,-800.000000,-800.000000,-800.000000,-800.000000,-800.000000,-800.000000,3
749776476,0.488377,-10.887051,-11.375427,5.199337,5.931902,-11.131239,-800.000000,-800.000000,-800.000000,-800.000000,-800.000000,-800.000000,3
749778474,0.509548,-10.861111,-11.370659,5.175781,5.940104,-11.115885,-800.000000,-800.000000,-800.000000,-800.000000,-800.000000,-800.000000,3
749780472,0.379467,-10.640907,-11.020374,5.130720,5.699921,-10.830641,-800.000000,-800.000000,-800.000000,-800.000000,-800.000000,-800.000000,3
749782470,0.298882,-10.446167,-10.745049,5.073643,5.521965,-10.595608,-800.000000,-800.000000,-800.000000,-800.000000,-800.000000,-800.000000,3
749784468,0.217724,-10.188007,-10.405731,4.985142,5.311728,-10.296869,-800.000000,-800.000000,-800.000000,-800.000000,-800.000000,-800.000000,3
749786466,-0.001812,-9.804535,-9.802723,4.903173,4.900455,-9.803629,-800.000000,-800.000000,-800.000000,-800.000000,-800.000000,-800.000000,3
749788463,-0.054836,-9.804535,-9.749699,4.929686,4.847431,-9.777117,-800.000000,-800.000000,-800.000000,-800.000000,-800.000000,-800.000000,3
749790461,-0.000095,-10.003662,-10.003567,5.001879,5.001736,-10.003614,-800.000000,-800.000000,-800.000000,-800.000000,-800.000000,-800.000000,3
749792459,0.091743,-10.144520,-10.236263,5.026388,5.164003,-10.190392,-800.000000,-800.000000,-800.000000,-800.000000,-800.000000,-800.000000,3
749794459,0.234318,-10.310555,-10.544872,5.038118,5.389595,-10.427713,-800.000000,-800.000000,-800.000000,-800.000000,-800.000000,-800.000000,3
749796456,0.456142,-10.675621,-11.131763,5.109739,5.793953,-10.903692,-800.000000,-800.000000,-800.000000,-800.000000,-800.000000,-800.000000,3
749798452,0.505352,-10.672474,-11.177826,5.083561,5.841589,-10.925150,-800.000000,-800.000000,-800.000000,-800.000000,-800.000000,-800.000000,3
749800450,0.388908,-10.458183,-10.847092,5.034637,5.618000,-10.652637,-800.000000,-800.000000,-800.000000,-800.000000,-800.000000,-800.000000,3
749802448,0.249577,-10.345078,-10.594654,5.047750,5.422115,-10.469866,-800.000000,-800.000000,-800.000000,-800.000000,-800.000000,-800.000000,3
749804445,0.152683,-10.149765,-10.302448,4.998541,5.227566,-10.226107,-800.000000,-800.000000,-800.000000,-800.000000,-800.000000,-800.000000,3
749806443,-0.016689,-9.762001,-9.745312,4.889345,4.864311,-9.753656,-800.000000,-800.000000,-800.000000,-800.000000,-800.000000,-800.000000,3
749808441,-0.067616,-9.758949,-9.691334,4.913282,4.811859,-9.725142,-800.000000,-800.000000,-800.000000,-800.000000,-800.000000,-800.000000,3
749810439,0.015259,-9.986115,-10.001373,4.985428,5.008316,-9.993744,-800.000000,-800.000000,-800.000000,-800.000000,-800.000000,-800.000000,3
749812436,0.119019,-10.127926,-10.246944,5.004454,5.182981,-10.187435,-800.000000,-800.000000,-800.000000,-800.000000,-800.000000,-800.000000,3
749814436,0.259113,-10.284519,-10.543633,5.012703,5.401373,-10.414076,-800.000000,-800.000000,-800.000000,-800.000000,-800.000000,-800.000000,3
749816432,0.480652,-10.646439,-11.127090,5.082893,5.803871,-10.886765,-800.000000,-800.000000,-800.000000,-800.000000,-800.000000,-800.000000,3
749818430,0.530148,-10.646820,-11.176968,5.058336,5.853558,-10.911894,-800.000000,-800.000000,-800.000000,-800.000000,-800.000000,-800.000000,3
749820428,0.442791,-10.425568,-10.868359,4.991388,5.655575,-10.646963,-800.000000,-800.000000,-800.000000,-800.000000,-800.000000,-800.000000,3
749822425,0.340939,-10.281181,-10.622120,4.970121,5.481529,-10.451651,-800.000000,-800.000000,-800.000000,-800.000000,-800.000000,-800.000000,3
749824423,0.210476,-10.123539,-10.334015,4.956532,5.272245,-10.228777,-800.000000,-800.000000,-800.000000,-800.000000,-800.000000,-800.000000,3
749826421,0.006294,-9.769630,-9.775925,4.881668,4.891109,-9.772778,-800.000000,-800.000000,-800.000000,-800.000000,-800.000000,-800.000000,3
749828419,-0.017357,-9.734535,-9.717178,4.875946,4.849911,-9.725857,-800.000000,-800.000000,-800.000000,-800.000000,-800.000000,-800.000000,3
749830416,0.075626,-9.951496,-10.027122,4.937935,5.051374,-9.989309,-800.000000,-800.000000,-800.000000,-800.000000,-800.000000,-800.000000,3
749832414,0.172424,-10.099983,-10.272408,4.963779,5.222416,-10.186195,-800.000000,-800.000000,-800.000000,-800.000000,-800.000000,-800.000000,3
749834412,0.294304,-10.263634,-10.557938,4.984665,5.426121,-10.410786,-800.000000,-800.000000,-800.000000,-800.000000,-800.000000,-800.000000,3
749836410,0.495529,-10.637188,-11.132717,5.070829,5.814123,-10.884953,-800.000000,-800.000000,-800.000000,-800.000000,-800.000000,-800.000000,3
749838409,0.535297,-10.664845,-11.200142,5.064774,5.867720,-10.932493,-800.000000,-800.000000,-800.000000,-800.000000,-800.000000,-800.000000,3
749840406,0.445747,-10.449791,-10.895538,5.002022,5.670643,-10.672665,-800.000000,-800.000000,-800.000000,-800.000000,-800.000000,-800.000000,3
749842403,0.366116,-10.274029,-10.640144,4.953957,5.503130,-10.457087,-800.000000,-800.000000,-800.000000,-800.000000,-800.000000,-800.000000,3
749844401,0.266457,-10.078716,-10.345173,4.906130,5.305815,-10.211945,-800.000000,-800.000000,-800.000000,-800.000000,-800.000000,-800.000000,3
749846401,0.080967,-9.718609,-9.799576,4.818821,4.940271,-9.759092,-800.000000,-800.000000,-800.000000,-800.000000,-800.000000,-800.000000,3
749848396,0.006104,-9.724331,-9.730434,4.859114,4.868269,-9.727383,-800.000000,-800.000000,-800.000000,-800.000000,-800.000000,-800.000000,3
749850394,0.052738,-9.957790,-10.010529,4.952526,5.031633,-9.984159,-800.000000,-800.000000,-800.000000,-800.000000,-800.000000,-800.000000,3
749852392,0.145149,-10.105801,-10.250950,4.980326,5.198050,-10.178375,-800.000000,-800.000000,-800.000000,-800.000000,-800.000000,-800.000000,3
749854389,0.250340,-10.289001,-10.539341,5.019331,5.394840,-10.414171,-800.000000,-800.000000,-800.000000,-800.000000,-800.000000,-800.000000,3
749856389,0.440121,-10.662746,-11.102867,5.111313,5.771494,-10.882807,-800.000000,-800.000000,-800.000000,-800.000000,-800.000000,-800.000000,3
749858385,0.524330,-10.668564,-11.192894,5.072117,5.858612,-10.930729,-800.000000,-800.000000,-800.000000,-800.000000,-800.000000,-800.000000,3
749860383,0.447941,-10.429955,-10.877895,4.991007,5.662918,-10.653925,-800.000000,-800.000000,-800.000000,-800.000000,-800.000000,-800.000000,3
749862381,0.355625,-10.260201,-10.615826,4.952288,5.485725,-10.438013,-800.000000,-800.000000,-800.000000,-800.000000,-800.000000,-800.000000,3
749864378,0.259781,-10.081959,-10.341740,4.911089,5.300760,-10.211849,-800.000000,-800.000000,-800.000000,-800.000000,-800.000000,-800.000000,3
749866377,0.078106,-9.723473,-9.801579,4.822683,4.939842,-9.762526,-800.000000,-800.000000,-800.000000,-800.000000,-800.000000,-800.000000,3
749868374,-0.009060,-9.741592,-9.732533,4.875326,4.861736,-9.737062,-800.000000,-800.000000,-800.000000,-800.000000,-800.000000,-800.000000,3
749870371,0.057030,-9.976196,-10.033226,4.959583,5.045128,-10.004711,-800.000000,-800.000000,-800.000000,-800.000000,-800.000000,-800.000000,3
749872369,0.155544,-10.116386,-10.271931,4.980421,5.213737,-10.194159,-800.000000,-800.000000,-800.000000,-800.000000,-800.000000,-800.000000,3
749874367,0.265598,-10.283566,-10.549164,5.008984,5.407381,-10.416365,-800.000000,-800.000000,-800.000000,-800.000000,-800.000000,-800.000000,3
749876365,0.441933,-10.655117,-11.097050,5.106592,5.769491,-10.876083,-800.000000,-800.000000,-800.000000,-800.000000,-800.000000,-800.000000,3
749878363,0.509357,-10.669422,-11.178780,5.080032,5.844069,-10.924101,-800.000000,-800.000000,-800.000000,-800.000000,-800.000000,-800.000000,3
749880361,0.465965,-10.421371,-10.887337,4.977703,5.676651,-10.654354,-800.000000,-800.000000,-800.000000,-800.000000,-800.000000,-800.000000,3
749882358,0.391197,-10.252380,-10.643578,4.930592,5.517387,-10.447979,-800.000000,-800.000000,-800.000000,-800.000000,-800.000000,-800.000000,3
749884356,0.280476,-10.085392,-10.365868,4.902458,5.323172,-10.225630,-800.000000,-800.000000,-800.000000,-800.000000,-800.000000,-800.000000,3
749886354,0.107861,-9.728813,-9.836674,4.810476,4.972267,-9.782743,-800.000000,-800.000000,-800.000000,-800.000000,-800.000000,-800.000000,3
749888352,0.029182,-9.748554,-9.777737,4.859686,4.903460,-9.763145,-800.000000,-800.000000,-800.000000,-800.000000,-800.000000,-800.000000,3
749890350,0.115299,-9.948349,-10.063648,4.916525,5.089474,-10.005999,-800.000000,-800.000000,-800.000000,-800.000000,-800.000000,-800.000000,3
749892347,0.221634,-10.084820,-10.306454,4.931593,5.264044,-10.195637,-800.000000,-800.000000,-800.000000,-800.000000,-800.000000,-800.000000,3
749894348,0.306225,-10.294724,-10.600948,4.994249,5.453587,-10.447836,-800.000000,-800.000000,-800.000000,-800.000000,-800.000000,-800.000000,3
749896343,0.477695,-10.683250,-11.160946,5.102777,5.819321,-10.922098,-800.000000,-800.000000,-800.000000,-800.000000,-800.000000,-800.000000,3
749898341,0.543022,-10.675335,-11.218357,5.066156,5.880690,-10.946846,-800.000000,-800.000000,-800.000000,-800.000000,-800.000000,-800.000000,3
749900338,0.490189,-10.435009,-10.925198,4.972410,5.707693,-10.680103,-800.000000,-800.000000,-800.000000,-800.000000,-800.000000,-800.000000,3
749902336,0.415707,-10.267162,-10.682869,4.925728,5.549288,-10.475016,-800.000000,-800.000000,-800.000000,-800.000000,-800.000000,-800.000000,3
749904334,0.326061,-10.091400,-10.417461,4.882669,5.371761,-10.254431,-800.000000,-800.000000,-800.000000,-800.000000,-800.000000,-800.000000,3
749906332,0.170517,-9.724140,-9.894657,4.776812,5.032587,-9.809399,-800.000000,-800.000000,-800.000000,-800.000000,-800.000000,-800.000000,3
749908329,0.129509,-9.692001,-9.821510,4.781246,4.975510,-9.756756,-800.000000,-800.000000,-800.000000,-800.000000,-800.000000,-800.000000,3
749910327,0.216389,-9.907436,-10.123825,4.845524,5.170107,-10.015631,-800.000000,-800.000000,-800.000000,-800.000000,-800.000000,-800.000000,3
749912325,0.312996,-10.052967,-10.365963,4.869986,5.339479,-10.209465,-800.000000,-800.000000,-800.000000,-800.000000,-800.000000,-800.000000,3
749914324,0.400925,-10.240078,-10.641003,4.919577,5.520964,-10.440540,-800.000000,-800.000000,-800.000000,-800.000000,-800.000000,-800.000000,3
749916321,0.571156,-10.618401,-11.189556,5.023623,5.880356,-10.903978,-800.000000,-800.000000,-800.000000,-800.000000,-800.000000,-800.000000,3
749918319,0.638580,-10.623169,-11.261749,4.992294,5.950165,-10.942459,-800.000000,-800.000000,-800.000000,-800.000000,-800.000000,-800.000000,3
749920317,0.582600,-10.400200,-10.982800,4.908800,5.782700,-10.691500,-800.000000,-800.000000,-800.000000,-800.000000,-800.000000,-800.000000,3
749922314,0.504017,-10.240364,-10.744381,4.868174,5.624199,-10.492373,-800.000000,-800.000000,-800.000000,-800.000000,-800.000000,-800.000000,3
749924313,0.409698,-10.069752,-10.479450,4.830027,5.444574,-10.274601,-800.000000,-800.000000,-800.000000,-800.000000,-800.000000,-800.000000,3
749926310,0.259495,-9.695435,-9.954929,4.717970,5.107212,-9.825182,-800.000000,-800.000000,-800.000000,-800.000000,-800.000000,-800.000000,3
749928308,0.212955,-9.667110,-9.880066,4.727077,5.046511,-9.773588,-800.000000,-800.000000,-800.000000,-800.000000,-800.000000,-800.000000,3
749930305,0.277710,-9.900665,-10.178375,4.811478,5.228043,-10.039520,-800.000000,-800.000000,-800.000000,-800.000000,-800.000000,-800.000000,3
749932303,0.365734,-10.054684,-10.420418,4.844475,5.393076,-10.237551,-800.000000,-800.000000,-800.000000,-800.000000,-800.000000,-800.000000,3
749934302,0.461006,-10.232830,-10.693836,4.885912,5.577421,-10.463333,-800.000000,-800.000000,-800.000000,-800.000000,-800.000000,-800.000000,3
749936299,0.632095,-10.612965,-11.245060,4.990435,5.938578,-10.929012,-800.000000,-800.000000,-800.000000,-800.000000,-800.000000,-800.000000,3
749938297,0.700283,-10.616970,-11.317253,4.958344,6.008768,-10.967112,-800.000000,-800.000000,-800.000000,-800.000000,-800.000000,-800.000000,3
749940294,0.673866,-10.356808,-11.030674,4.841471,5.852270,-10.693741,-800.000000,-800.000000,-800.000000,-800.000000,-800.000000,-800.000000,3
749942292,0.621128,-10.174179,-10.795307,4.776525,5.708218,-10.484743,-800.000000,-800.000000,-800.000000,-800.000000,-800.000000,-800.000000,3
749944290,0.538540,-10.002613,-10.541153,4.732037,5.539846,-10.271883,-800.000000,-800.000000,-800.000000,-800.000000,-800.000000,-800.000000,3
749946289,0.352669,-9.675884,-10.028553,4.661608,5.190611,-9.852219,-800.000000,-800.000000,-800.000000,-800.000000,-800.000000,-800.000000,3
749948286,0.251579,-9.699917,-9.951496,4.724169,5.101538,-9.825706,-800.000000,-800.000000,-800.000000,-800.000000,-800.000000,-800.000000,3
749950283,0.276661,-9.952068,-10.228729,4.837704,5.252695,-10.090399,-800.000000,-800.000000,-800.000000,-800.000000,-800.000000,-800.000000,3
749952281,0.362778,-10.099220,-10.461998,4.868221,5.412388,-10.280609,-800.000000,-800.000000,-800.000000,-800.000000,-800.000000,-800.000000,3
749954279,0.488567,-10.232544,-10.721111,4.871988,5.604839,-10.476828,-800.000000,-800.000000,-800.000000,-800.000000,-800.000000,-800.000000,3
749956277,0.667667,-10.580921,-11.248589,4.956627,5.958128,-10.914755,-800.000000,-800.000000,-800.000000,-800.000000,-800.000000,-800.000000,3
749958275,0.741768,-10.610008,-11.351776,4.934120,6.046772,-10.980892,-800.000000,-800.000000,-800.000000,-800.000000,-800.000000,-800.000000,3
749960272,0.690365,-10.385323,-11.075687,4.847479,5.883026,-10.730505,-800.000000,-800.000000,-800.000000,-800.000000,-800.000000,-800.000000,3
749962270,0.597382,-10.235977,-10.833359,4.819298,5.715370,-10.534668,-800.000000,-800.000000,-800.000000,-800.000000,-800.000000,-800.000000,3
749964267,0.489521,-10.083389,-10.572910,4.796934,5.531216,-10.328150,-800.000000,-800.000000,-800.000000,-800.000000,-800.000000,-800.000000,3
749966265,0.336742,-9.719563,-10.056305,4.691410,5.196524,-9.887934,-800.000000,-800.000000,-800.000000,-800.000000,-800.000000,-800.000000,3
749968263,0.297260,-9.665680,-9.962940,4.684210,5.130100,-9.814310,-800.000000,-800.000000,-800.000000,-800.000000,-800.000000,-800.000000,3
749970261,0.365353,-9.881687,-10.247040,4.758167,5.306196,-10.064363,-800.000000,-800.000000,-800.000000,-800.000000,-800.000000,-800.000000,3
749972259,0.447083,-10.026360,-10.473442,4.789639,5.460262,-10.249901,-800.000000,-800.000000,-800.000000,-800.000000,-800.000000,-800.000000,3
749974256,0.538254,-10.181618,-10.719872,4.821682,5.629063,-10.450745,-800.000000,-800.000000,-800.000000,-800.000000,-800.000000,-800.000000,3
749976254,0.685215,-10.547447,-11.232662,4.931116,5.958939,-10.890055,-800.000000,-800.000000,-800.000000,-800.000000,-800.000000,-800.000000,3
749978252,0.738716,-10.599232,-11.337948,4.930258,6.038332,-10.968590,-800.000000,-800.000000,-800.000000,-800.000000,-800.000000,-800.000000,3
749980250,0.676537,-10.386658,-11.063194,4.855061,5.869865,-10.724926,-800.000000,-800.000000,-800.000000,-800.000000,-800.000000,-800.000000,3
749982248,0.595760,-10.208035,-10.803795,4.806137,5.699778,-10.505915,-800.000000,-800.000000,-800.000000,-800.000000,-800.000000,-800.000000,3
749984245,0.506783,-10.052013,-10.558796,4.772615,5.532789,-10.305405,-800.000000,-800.000000,-800.000000,-800.000000,-800.000000,-800.000000,3
749986243,0.341797,-9.715366,-10.057163,4.686785,5.199480,-9.886265,-800.000000,-800.000000,-800.000000,-800.000000,-800.000000,-800.000000,3
749988242,0.260544,-9.693813,-9.954357,4.716635,5.107450,-9.824085,-800.000000,-800.000000,-800.000000,-800.000000,-800.000000,-800.000000,3
749990239,0.308800,-9.924603,-10.233402,4.807901,5.271101,-10.079002,-800.000000,-800.000000,-800.000000,-800.000000,-800.000000,-800.000000,3
