timestamp_us,I_mV,II_mV,III_mV,aVR_mV,aVL_mV,aVF_mV,V1_mV,V2_mV,V3_mV,V4_mV,V5_mV,V6_mV,gain
72824944,-11.257505,-12.060118,-0.802612,11.658812,-5.227447,-6.431365,-4.085684,-3.482771,-16.311455,-16.410255,-16.170692,-13.924599,6
72826941,-11.301613,-12.063074,-0.761461,11.682343,-5.270076,-6.412268,-4.072618,-3.431416,-16.262388,-16.364384,-16.125965,-13.693762,6
72828937,-11.346531,-12.076569,-0.730038,11.711550,-5.308247,-6.403303,-4.097080,-3.426600,-16.249275,-16.340113,-16.104603,-13.688517,6
72830934,-11.349726,-12.081289,-0.731564,11.715508,-5.309081,-6.406426,-4.098558,-3.423643,-16.244078,-16.334915,-16.099596,-13.704157,6
72832930,-11.301327,-12.066221,-0.764894,11.683774,-5.268216,-6.415558,-4.119205,-3.464651,-16.275883,-16.365719,-16.130638,-13.730431,6
72834927,-11.224413,-12.043095,-0.818682,11.633754,-5.202866,-6.430888,-4.155207,-3.533792,-16.331959,-16.420841,-16.184616,-13.739061,6
72836924,-11.166668,-12.031031,-0.864363,11.598849,-5.151153,-6.447697,-4.195404,-3.601074,-16.386127,-16.472864,-16.237068,-13.773632,6
72838921,-11.140537,-12.027216,-0.886679,11.583877,-5.126929,-6.456947,-4.214907,-3.640270,-16.418648,-16.504478,-16.268921,-13.809538,6
72840918,-11.151838,-12.029791,-0.877953,11.590815,-5.136943,-6.453872,-4.214525,-3.638840,-16.421413,-16.507006,-16.270590,-13.826370,6
72842914,-11.196947,-12.045240,-0.848293,11.621094,-5.174327,-6.446767,-4.196978,-3.606033,-16.396904,-16.482973,-16.246605,-13.828087,6
72844912,-11.265469,-12.068558,-0.803089,11.667013,-5.231190,-6.435823,-4.167843,-3.547573,-16.349745,-16.436481,-16.200972,-13.822174,6
72846908,-11.334467,-12.089729,-0.755262,11.712098,-5.289602,-6.422496,-4.126835,-3.476000,-16.293573,-16.381979,-16.145182,-13.799047,6
72848905,-11.377859,-12.102032,-0.724173,11.739945,-5.326843,-6.413102,-4.104185,-3.428555,-16.253042,-16.342926,-16.107130,-13.789272,6
72850901,-11.380005,-12.106228,-0.726223,11.743116,-5.326891,-6.416225,-4.102039,-3.423548,-16.244984,-16.336298,-16.100121,-13.803196,6
72852898,-11.328125,-12.091780,-0.763655,11.709952,-5.282235,-6.427717,-4.124689,-3.466129,-16.276693,-16.367149,-16.131020,-13.837481,6
72854895,-11.245060,-12.067366,-0.822306,11.656213,-5.211377,-6.444836,-4.156160,-3.534555,-16.332150,-16.421366,-16.185093,-13.863707,6
72856892,-11.179972,-12.049818,-0.869846,11.614895,-5.155063,-6.459832,-4.191208,-3.601742,-16.385126,-16.472483,-16.236877,-13.872957,6
72858888,-11.153746,-12.046528,-0.892782,11.600137,-5.130482,-6.469655,-4.212904,-3.644896,-16.419172,-16.505194,-16.269302,-13.905382,6
72860885,-11.160564,-12.048388,-0.887823,11.604476,-5.136371,-6.468105,-4.212523,-3.647852,-16.422367,-16.508341,-16.272259,-13.925409,6
72862882,-11.198187,-12.056923,-0.858736,11.627555,-5.169725,-6.457829,-4.193401,-3.614235,-16.398907,-16.484833,-16.248751,-13.928699,6
72864880,-11.259460,-12.073231,-0.813770,11.666346,-5.222845,-6.443501,-4.163265,-3.555822,-16.351652,-16.438818,-16.202879,-13.919735,6
72866876,-11.323500,-12.092590,-0.769091,11.708045,-5.277205,-6.430840,-4.123402,-3.483868,-16.293478,-16.383028,-16.146708,-13.894749,6
72868873,-11.359739,-12.099409,-0.739670,11.729574,-5.310035,-6.419539,-4.096794,-3.432226,-16.249132,-16.340542,-16.104746,-13.849592,6
72870869,-11.361361,-12.102699,-0.741339,11.732030,-5.310011,-6.422019,-4.102182,-3.431177,-16.244841,-16.334963,-16.099548,-13.840675,6
72872866,-11.315203,-12.091494,-0.776291,11.703348,-5.269456,-6.433892,-4.124784,-3.474522,-16.277361,-16.366577,-16.130877,-13.875628,6
72874863,-11.243486,-12.075186,-0.831699,11.659336,-5.205894,-6.453443,-4.162598,-3.548670,-16.336536,-16.423893,-16.187859,-13.925791,6
72876860,-11.183691,-12.060976,-0.877285,11.622334,-5.153203,-6.469131,-4.197407,-3.614283,-16.389513,-16.475010,-16.239023,-13.972092,6
72878857,-11.156273,-12.055492,-0.899220,11.605883,-5.128527,-6.477356,-4.215670,-3.653717,-16.422319,-16.507101,-16.271448,-14.006186,6
72880853,-11.160469,-12.054586,-0.894117,11.607528,-5.133176,-6.474352,-4.216480,-3.654099,-16.424847,-16.510391,-16.274071,-14.023161,6
72882850,-11.200047,-12.064266,-0.864220,11.632156,-5.167913,-6.464243,-4.198551,-3.621769,-16.401386,-16.487455,-16.251135,-14.023972,6
72884847,-11.264563,-12.081814,-0.817251,11.673188,-5.223656,-6.449533,-4.166937,-3.562212,-16.353464,-16.440821,-16.204453,-14.015150,6
72886844,-11.330938,-12.101555,-0.770617,11.716247,-5.280161,-6.436086,-4.130745,-3.492785,-16.296196,-16.384602,-16.148758,-13.993835,6
72888840,-11.369991,-12.109518,-0.739527,11.739755,-5.315232,-6.424522,-4.104757,-3.440475,-16.253519,-16.343307,-16.107655,-13.971281,6
72890837,-11.366177,-12.102890,-0.736713,11.734533,-5.314732,-6.419802,-4.096699,-3.426552,-16.241646,-16.332865,-16.097164,-13.933849,6
72892834,-11.320877,-12.092543,-0.771666,11.706710,-5.274606,-6.432104,-4.125547,-3.472328,-16.276312,-16.365862,-16.129398,-13.956881,6
72894831,-11.247206,-12.075901,-0.828695,11.661553,-5.209255,-6.452298,-4.168320,-3.549099,-16.335678,-16.423082,-16.187382,-14.006901,6
72896827,-11.184788,-12.060022,-0.875235,11.622405,-5.154777,-6.467628,-4.201603,-3.614664,-16.388130,-16.473866,-16.238880,-14.051485,6
72898824,-11.152554,-12.052488,-0.899935,11.602521,-5.126309,-6.476212,-4.222679,-3.653717,-16.421509,-16.505766,-16.270876,-14.086103,6
72900821,-11.159515,-12.055683,-0.896168,11.607599,-5.131674,-6.475925,-4.224014,-3.656435,-16.425705,-16.510439,-16.274786,-14.105415,6
72902818,-11.201429,-12.068081,-0.866652,11.634755,-5.167389,-6.467366,-4.207325,-3.626204,-16.402483,-16.487408,-16.252565,-14.108801,6
72904815,-11.262369,-12.083054,-0.820684,11.672711,-5.220842,-6.451869,-4.176140,-3.566599,-16.355324,-16.442251,-16.206312,-14.097786,6
72906811,-11.328173,-12.097692,-0.769520,11.712933,-5.279326,-6.433606,-4.134274,-3.490925,-16.297960,-16.386080,-16.150522,-14.071321,6
72908808,-11.366940,-12.104940,-0.738001,11.735940,-5.314469,-6.421471,-4.105139,-3.435659,-16.251659,-16.341734,-16.106939,-14.032793,6
72910805,-11.365223,-12.104225,-0.739002,11.734724,-5.313110,-6.421614,-4.103374,-3.428698,-16.241312,-16.332054,-16.097450,-13.984871,6
72912802,-11.323023,-12.095404,-0.772381,11.709213,-5.275321,-6.433892,-4.134512,-3.477669,-16.277838,-16.366196,-16.130733,-14.008331,6
72914799,-11.255598,-12.078094,-0.822496,11.666846,-5.216551,-6.450295,-4.173136,-3.550005,-16.336632,-16.423941,-16.187954,-14.057493,6
72916795,-11.198759,-12.063837,-0.865078,11.631298,-5.166841,-6.464458,-4.207563,-3.616190,-16.388607,-16.475487,-16.239166,-14.101934,6
72918792,-11.169291,-12.054968,-0.885677,11.612129,-5.141807,-6.470323,-4.227686,-3.655386,-16.421032,-16.506624,-16.270256,-14.135933,6
72920789,-11.176205,-12.058449,-0.882244,11.617327,-5.146980,-6.470346,-4.229164,-3.659678,-16.425514,-16.510630,-16.274643,-14.154768,6
72922785,-11.215925,-12.072039,-0.856113,11.643982,-5.179906,-6.464076,-4.212666,-3.627586,-16.402769,-16.489172,-16.252851,-14.158154,6
72924784,-11.277866,-12.090874,-0.813007,11.684370,-5.232430,-6.451941,-4.180336,-3.568411,-16.356802,-16.443920,-16.207361,-14.147663,6
72926782,-11.336184,-12.099123,-0.762939,11.717653,-5.286622,-6.431031,-4.109907,-3.466654,-16.285133,-16.376591,-16.139460,-14.063406,6
72928779,-11.341238,-12.079525,-0.738287,11.710382,-5.301476,-6.408906,-4.027510,-3.363943,-16.204309,-16.316652,-16.077089,-13.767815,6
72930776,-11.335421,-12.075806,-0.740385,11.705613,-5.297518,-6.408095,-4.094028,-3.415060,-16.233540,-16.331387,-16.094112,-13.698721,6
72932772,-11.295223,-12.068319,-0.773096,11.681771,-5.261064,-6.420708,-4.130936,-3.467655,-16.274881,-16.365004,-16.128969,-13.739109,6
72934769,-11.225080,-12.051916,-0.826836,11.638498,-5.199122,-6.439376,-4.171228,-3.541565,-16.334105,-16.421604,-16.185665,-13.789368,6
72936766,-11.161423,-12.033749,-0.872326,11.597586,-5.144548,-6.453037,-4.203796,-3.605652,-16.386795,-16.473103,-16.236734,-13.835526,6
72938762,-11.132812,-12.029552,-0.896740,11.581182,-5.118036,-6.463146,-4.224634,-3.644085,-16.420174,-16.506958,-16.270161,-13.872242,6
72940759,-11.141634,-12.032604,-0.890970,11.587119,-5.125332,-6.461787,-4.225540,-3.646708,-16.425705,-16.511297,-16.275263,-13.893461,6
72942756,-11.182880,-12.045431,-0.862551,11.614156,-5.160165,-6.453991,-4.208517,-3.614902,-16.403294,-16.489649,-16.253233,-13.893557,6
72944754,-11.238766,-12.056780,-0.818014,11.647773,-5.210376,-6.437397,-4.172897,-3.550959,-16.353893,-16.441917,-16.205359,-13.846588,6
72946750,-11.308384,-12.078142,-0.769758,11.693263,-5.269313,-6.423950,-4.138994,-3.482389,-16.298389,-16.387415,-16.151619,-13.801527,6
72948746,-11.355448,-12.093639,-0.738192,11.724544,-5.308628,-6.415915,-4.116249,-3.434992,-16.255236,-16.345835,-16.110039,-13.785076,6
72950743,-11.359167,-12.098455,-0.739288,11.728811,-5.309939,-6.418872,-4.113960,-3.427362,-16.245699,-16.336679,-16.100454,-13.794661,6
72952740,-11.314344,-12.089682,-0.775337,11.702013,-5.269504,-6.432509,-4.135704,-3.468561,-16.275644,-16.365623,-16.129541,-13.829851,6
72954737,-11.244106,-12.074184,-0.830078,11.659145,-5.207014,-6.452131,-4.173660,-3.540468,-16.333818,-16.421366,-16.185713,-13.876915,6
72956734,-11.176062,-12.050915,-0.874853,11.613488,-5.150604,-6.462884,-4.199123,-3.598738,-16.383314,-16.469955,-16.233873,-13.888121,6
72958730,-11.142826,-12.043333,-0.900507,11.593080,-5.121160,-6.471920,-4.223824,-3.639984,-16.418791,-16.504383,-16.268110,-13.894176,6
72960727,-11.147594,-12.046194,-0.898600,11.596894,-5.124497,-6.472397,-4.227448,-3.645611,-16.424799,-16.510677,-16.274548,-13.912916,6
72962724,-11.189127,-12.060452,-0.871325,11.624789,-5.158901,-6.465888,-4.211617,-3.616619,-16.404247,-16.490316,-16.253757,-13.917875,6
72964722,-11.252308,-12.079144,-0.826836,11.665726,-5.212736,-6.452990,-4.181623,-3.560114,-16.358519,-16.445923,-16.209412,-13.909912,6
72966718,-11.321688,-12.100792,-0.779104,11.711240,-5.271292,-6.439948,-4.145098,-3.490448,-16.301966,-16.390562,-16.154623,-13.894796,6
72968715,-11.366320,-12.112474,-0.746155,11.739397,-5.310082,-6.429315,-4.118490,-3.436613,-16.257143,-16.347122,-16.111755,-13.878679,6
72970712,-11.362886,-12.102795,-0.739908,11.732841,-5.311489,-6.421351,-4.103708,-3.413057,-16.240549,-16.331387,-16.096210,-13.835239,6
72972708,-11.318636,-12.088776,-0.770140,11.703706,-5.274248,-6.429458,-4.129839,-3.453827,-16.271925,-16.361141,-16.125345,-13.807774,6
72974705,-11.247587,-12.075281,-0.827694,11.661434,-5.209947,-6.451488,-4.175758,-3.531170,-16.332579,-16.419792,-16.183186,-13.854361,6
72976702,-11.186695,-12.058687,-0.871992,11.622691,-5.157351,-6.465340,-4.211283,-3.599262,-16.386604,-16.472292,-16.236162,-13.902473,6
72978699,-11.156368,-12.052727,-0.896358,11.604548,-5.130005,-6.474543,-4.234028,-3.642178,-16.421080,-16.506290,-16.270447,-13.938665,6
72980695,-11.161947,-12.055731,-0.893784,11.608839,-5.134082,-6.474757,-4.235458,-3.647232,-16.426516,-16.512537,-16.276217,-13.957357,6
72982692,-11.203241,-12.070036,-0.866795,11.636639,-5.168223,-6.468415,-4.218245,-3.615952,-16.404724,-16.490364,-16.254997,-13.959408,6
72984690,-11.267519,-12.089539,-0.822020,11.678529,-5.222750,-6.455779,-4.188824,-3.557444,-16.359568,-16.445637,-16.210175,-13.953257,6
72986686,-11.332273,-12.107611,-0.775337,11.719942,-5.278468,-6.441474,-4.151058,-3.485680,-16.303301,-16.390419,-16.155195,-13.932467,6
72988683,-11.379194,-12.120581,-0.741386,11.749887,-5.318904,-6.430984,-4.126692,-3.437090,-16.260099,-16.349077,-16.113424,-13.921547,6
72990679,-11.388016,-12.125111,-0.737095,11.756563,-5.325460,-6.431103,-4.121685,-3.428411,-16.248751,-16.338539,-16.102409,-13.933611,6
72992676,-11.343336,-12.113380,-0.770044,11.728358,-5.286646,-6.441712,-4.141140,-3.467274,-16.276741,-16.366243,-16.130352,-13.965559,6
72994673,-11.269093,-12.091684,-0.822592,11.680388,-5.223250,-6.457138,-4.175043,-3.537512,-16.334105,-16.421986,-16.185760,-14.012432,6
72996670,-11.204052,-12.072229,-0.868177,11.638141,-5.167937,-6.470203,-4.206944,-3.602791,-16.386795,-16.473961,-16.236877,-14.055490,6
72998667,-11.170006,-12.065601,-0.895596,11.617804,-5.137205,-6.480598,-4.227209,-3.645992,-16.421080,-16.507292,-16.270208,-14.089298,6
73000664,-11.175680,-12.066460,-0.890779,11.621070,-5.142450,-6.478620,-4.229021,-3.650618,-16.426659,-16.512537,-16.276455,-14.107132,6
73002661,-11.215305,-12.078857,-0.863552,11.647081,-5.175877,-6.471205,-4.214954,-3.619862,-16.406250,-16.491890,-16.256380,-14.111614,6
73004658,-11.275816,-12.093925,-0.818110,11.684871,-5.228853,-6.456017,-4.185534,-3.561306,-16.361094,-16.447878,-16.211557,-14.100647,6
73006655,-11.339712,-12.105513,-0.765800,11.722612,-5.286956,-6.435657,-4.137230,-3.480244,-16.300154,-16.389227,-16.152143,-14.051819,6
73008652,-11.374998,-12.107611,-0.732613,11.741304,-5.321193,-6.420112,-4.105139,-3.422594,-16.252947,-16.343498,-16.107178,-13.966370,6
73010648,-11.384439,-12.115955,-0.731516,11.750197,-5.326462,-6.423736,-4.108953,-3.419352,-16.244745,-16.334486,-16.098881,-13.953400,6
73012645,-11.344337,-12.107897,-0.763559,11.726117,-5.290389,-6.435728,-4.130077,-3.458786,-16.273832,-16.362667,-16.126823,-13.985634,6
73014642,-11.273193,-12.089491,-0.816298,11.681342,-5.228448,-6.452894,-4.168510,-3.530216,-16.330147,-16.417694,-16.181517,-14.031887,6
73016639,-11.208963,-12.071180,-0.862217,11.640072,-5.173373,-6.466699,-4.202557,-3.596640,-16.382885,-16.469574,-16.233635,-14.075565,6
73018636,-11.175871,-12.063599,-0.887728,11.619735,-5.144072,-6.475663,-4.225206,-3.639746,-16.418552,-16.504145,-16.268444,-14.111090,6
73020633,-11.179781,-12.066460,-0.886679,11.623120,-5.146551,-6.476569,-4.229355,-3.646803,-16.425705,-16.510487,-16.274786,-14.130640,6
73022629,-11.216211,-12.077808,-0.861597,11.647010,-5.177307,-6.469703,-4.215622,-3.619289,-16.405439,-16.491270,-16.254759,-14.137793,6
73024627,-11.276293,-12.093210,-0.816917,11.684752,-5.229688,-6.455064,-4.185963,-3.561783,-16.360664,-16.447115,-16.211414,-14.130688,6
73026625,-11.341095,-12.111473,-0.770378,11.726284,-5.285358,-6.440926,-4.147911,-3.490257,-16.302872,-16.391468,-16.155434,-14.109039,6
73028623,-11.373711,-12.110758,-0.737047,11.742234,-5.318332,-6.423903,-4.090881,-3.410387,-16.242838,-16.337347,-16.100454,-14.036703,6
73030620,-11.340618,-12.083149,-0.742531,11.711884,-5.299044,-6.412840,-4.021692,-3.342009,-16.188431,-16.304064,-16.065407,-13.763714,6
73032617,-11.287737,-12.064791,-0.777054,11.676264,-5.255342,-6.420922,-4.112434,-3.441954,-16.258001,-16.355085,-16.119051,-13.711548,6
73034614,-11.218119,-12.048244,-0.830126,11.633182,-5.193996,-6.439185,-4.164839,-3.525543,-16.328192,-16.415644,-16.179895,-13.766861,6
73036611,-11.153936,-12.032843,-0.878906,11.593390,-5.137515,-6.455874,-4.201984,-3.595924,-16.382790,-16.469049,-16.233158,-13.815212,6
73038608,-11.120749,-12.025881,-0.905132,11.573315,-5.107808,-6.465507,-4.226303,-3.639078,-16.419220,-16.504240,-16.269255,-13.853216,6
73040604,-11.123514,-12.026405,-0.902891,11.574960,-5.110312,-6.464648,-4.228258,-3.645468,-16.426373,-16.512251,-16.276073,-13.872957,6
73042601,-11.163187,-12.040997,-0.877810,11.602092,-5.142689,-6.459403,-4.212236,-3.618574,-16.405487,-16.492701,-16.256332,-13.876438,6
73044600,-11.226034,-12.058210,-0.832176,11.642122,-5.196929,-6.445193,-4.176760,-3.557301,-16.358805,-16.446304,-16.209698,-13.851786,6
73046596,-11.294746,-12.076712,-0.781965,11.685729,-5.256391,-6.429338,-4.137611,-3.484201,-16.301012,-16.389656,-16.152954,-13.790655,6
73048594,-11.347675,-12.095404,-0.747728,11.721539,-5.299973,-6.421566,-4.118490,-3.437614,-16.258526,-16.348362,-16.111946,-13.772583,6
73050589,-11.356163,-12.098885,-0.742722,11.727524,-5.306721,-6.420803,-4.112101,-3.425789,-16.245699,-16.335392,-16.099977,-13.782120,6
73052586,-11.312389,-12.085915,-0.773525,11.699152,-5.269432,-6.429720,-4.129887,-3.460503,-16.272593,-16.361618,-16.125917,-13.814783,6
73054583,-11.239576,-12.064886,-0.825310,11.652231,-5.207133,-6.445098,-4.162264,-3.528786,-16.327572,-16.415405,-16.179466,-13.851595,6
73056580,-11.174393,-12.042952,-0.868559,11.608672,-5.152917,-6.455755,-4.190874,-3.589916,-16.378689,-16.465759,-16.230202,-13.854694,6
73058577,-11.147738,-12.038994,-0.891256,11.593366,-5.128241,-6.465125,-4.217052,-3.635597,-16.416502,-16.503048,-16.266346,-13.880587,6
73060573,-11.151409,-12.041855,-0.890446,11.596632,-5.130482,-6.466150,-4.220772,-3.643513,-16.423559,-16.509676,-16.273880,-13.901663,6
73062570,-11.189318,-12.052155,-0.862837,11.620736,-5.163240,-6.457496,-4.204941,-3.614378,-16.403532,-16.489792,-16.254759,-13.904238,6
73064568,-11.249876,-12.069845,-0.819969,11.659861,-5.214953,-6.444907,-4.176807,-3.558969,-16.360140,-16.447592,-16.211987,-13.896799,6
73066564,-11.318350,-12.091732,-0.773382,11.705041,-5.272484,-6.432557,-4.137754,-3.488636,-16.303730,-16.391468,-16.156054,-13.876343,6
73068561,-11.366367,-12.107944,-0.741577,11.737156,-5.312395,-6.424761,-4.114246,-3.438044,-16.258812,-16.348696,-16.112757,-13.865519,6
73070558,-11.372614,-12.108469,-0.735855,11.740541,-5.318379,-6.422162,-4.104710,-3.420544,-16.243410,-16.334057,-16.097879,-13.861275,6
73072554,-11.326361,-12.093115,-0.766754,11.709738,-5.279803,-6.429935,-4.118490,-3.452778,-16.267347,-16.357374,-16.121721,-13.847542,6
73074551,-11.257362,-12.076759,-0.819397,11.667061,-5.218983,-6.448078,-4.160500,-3.528214,-16.326952,-16.414976,-16.178751,-13.887882,6
73076548,-11.194324,-12.060452,-0.866127,11.627388,-5.164099,-6.463289,-4.196167,-3.595638,-16.381216,-16.468620,-16.232443,-13.934088,6
73078545,-11.162233,-12.054777,-0.892544,11.608505,-5.134845,-6.473660,-4.218626,-3.638983,-16.417313,-16.503525,-16.267872,-13.970900,6
73080542,-11.167383,-12.057209,-0.889826,11.612296,-5.138779,-6.473517,-4.220438,-3.645563,-16.424608,-16.510534,-16.274738,-13.989115,6
73082539,-11.203623,-12.066984,-0.863361,11.635303,-5.170131,-6.465173,-4.204130,-3.616858,-16.404867,-16.490507,-16.254950,-13.992262,6
73084536,-11.261415,-12.085104,-0.823689,11.673260,-5.218863,-6.454396,-4.174423,-3.561544,-16.361094,-16.447639,-16.211605,-13.984871,6
73086532,-11.328983,-12.105894,-0.776911,11.717439,-5.276036,-6.441402,-4.137802,-3.493261,-16.304302,-16.392899,-16.157293,-13.965559,6
73088529,-11.377716,-12.120342,-0.742626,11.749029,-5.317545,-6.431484,-4.113865,-3.444195,-16.259480,-16.349268,-16.113901,-13.953161,6
73090526,-11.390972,-12.126732,-0.735760,11.758852,-5.327606,-6.431246,-4.107666,-3.431225,-16.245317,-16.336155,-16.100216,-13.961792,6
73092523,-11.350107,-12.120295,-0.770187,11.735201,-5.289960,-6.445241,-4.126501,-3.467560,-16.271544,-16.361618,-16.125202,-13.993835,6
73094519,-11.274433,-12.100172,-0.825739,11.687303,-5.224347,-6.462955,-4.165983,-3.540134,-16.328526,-16.416836,-16.180420,-14.042282,6
73096516,-11.203718,-12.078094,-0.874376,11.640906,-5.164671,-6.476235,-4.199076,-3.607321,-16.382885,-16.469908,-16.233349,-14.086866,6
73098513,-11.165905,-12.067842,-0.901937,11.616874,-5.131984,-6.484890,-4.220295,-3.650141,-16.419601,-16.505098,-16.269302,-14.121151,6
73100510,-11.163712,-12.065887,-0.902176,11.614799,-5.130768,-6.484032,-4.223204,-3.658342,-16.427374,-16.512918,-16.276932,-14.140415,6
73102507,-11.197376,-12.074280,-0.876904,11.635828,-5.160236,-6.475592,-4.207468,-3.629971,-16.408062,-16.493845,-16.257811,-14.144611,6
73104504,-11.254978,-12.085819,-0.830841,11.670399,-5.212069,-6.458330,-4.174757,-3.570509,-16.363096,-16.450453,-16.214323,-14.130974,6
73106502,-11.318064,-12.097168,-0.779104,11.707616,-5.269480,-6.438136,-4.130030,-3.492069,-16.303825,-16.392565,-16.156006,-14.068317,6
73108497,-11.364317,-12.108755,-0.744438,11.736536,-5.309939,-6.426597,-4.103994,-3.438044,-16.256905,-16.346645,-16.112041,-14.010382,6
73110494,-11.372852,-12.110472,-0.737619,11.741662,-5.317616,-6.424046,-4.099560,-3.422499,-16.241884,-16.332817,-16.097593,-13.975477,6
73112491,-11.336184,-12.101889,-0.765705,11.719036,-5.285239,-6.433797,-4.121447,-3.458309,-16.268349,-16.358328,-16.122627,-13.998938,6
73114487,-11.264563,-12.083435,-0.818872,11.673999,-5.222845,-6.451154,-4.157639,-3.527594,-16.324759,-16.412735,-16.176796,-14.042902,6
73116484,-11.199665,-12.066174,-0.866508,11.632919,-5.166578,-6.466341,-4.192591,-3.595066,-16.379881,-16.465759,-16.230106,-14.086771,6
73118481,-11.164141,-12.059164,-0.895023,11.611652,-5.134559,-6.477094,-4.214573,-3.640985,-16.417170,-16.502190,-16.266537,-14.123106,6
73120477,-11.162710,-12.060595,-0.897884,11.611652,-5.132413,-6.479239,-4.217196,-3.651237,-16.426134,-16.511297,-16.275692,-14.142942,6
73122474,-11.196280,-12.074280,-0.878000,11.635280,-5.159140,-6.476140,-4.203415,-3.626823,-16.408300,-16.493368,-16.258097,-14.150143,6
73124472,-11.256075,-12.091923,-0.835848,11.673999,-5.210114,-6.463885,-4.172516,-3.571081,-16.364670,-16.450500,-16.215706,-14.141417,6
73126468,-11.323786,-12.109423,-0.785637,11.716604,-5.269074,-6.447530,-4.132128,-3.500175,-16.306877,-16.394997,-16.159582,-14.116716,6
73128464,-11.373472,-12.124348,-0.750875,11.748910,-5.311298,-6.437612,-4.106283,-3.448534,-16.260815,-16.351175,-16.115236,-14.097929,6
73130465,-11.383486,-12.127304,-0.743818,11.755395,-5.319834,-6.435561,-4.094219,-3.429699,-16.243887,-16.334248,-16.098833,-14.101171,6
73132461,-11.317205,-12.090015,-0.772810,11.703610,-5.272198,-6.431413,-4.038620,-3.395844,-16.226625,-16.332769,-16.095591,-13.955879,6
73134458,-11.219358,-12.048531,-0.829172,11.633945,-5.195093,-6.438851,-4.088688,-3.475618,-16.284800,-16.393137,-16.155577,-13.773584,6
73136455,-11.153507,-12.028170,-0.874662,11.590838,-5.139422,-6.451416,-4.173994,-3.587532,-16.374397,-16.463137,-16.227531,-13.820457,6
73138451,-11.119080,-12.020826,-0.901747,11.569953,-5.108666,-6.461287,-4.197741,-3.633642,-16.414165,-16.501284,-16.264963,-13.858652,6
73140448,-11.121511,-12.022305,-0.900793,11.571908,-5.110359,-6.461549,-4.203796,-3.643799,-16.424465,-16.510916,-16.274071,-13.881254,6
73142445,-11.157131,-12.034798,-0.877666,11.595964,-5.139732,-6.456232,-4.191828,-3.620768,-16.406822,-16.493607,-16.257143,-13.888407,6
73144443,-11.218500,-12.054682,-0.836182,11.636591,-5.191159,-6.445432,-4.163074,-3.568029,-16.362953,-16.450691,-16.214943,-13.881254,6
73146439,-11.284018,-12.068415,-0.784397,11.676216,-5.249810,-6.426406,-4.117775,-3.491116,-16.301107,-16.391802,-16.154861,-13.829660,6
73148435,-11.331558,-12.074804,-0.743246,11.703181,-5.294156,-6.409025,-4.090309,-3.434706,-16.252613,-16.344595,-16.108608,-13.747978,6
73150432,-11.344242,-12.081909,-0.737667,11.713076,-5.303288,-6.409788,-4.090166,-3.424835,-16.240215,-16.331577,-16.095734,-13.724089,6
73152428,-11.311150,-12.074995,-0.763845,11.693072,-5.273652,-6.419420,-4.110289,-3.460503,-16.265297,-16.356039,-16.120291,-13.755655,6
73154425,-11.244059,-12.059498,-0.815439,11.651778,-5.214310,-6.437469,-4.147387,-3.529406,-16.321278,-16.410875,-16.174603,-13.804436,6
73156422,-11.182213,-12.043762,-0.861549,11.612988,-5.160332,-6.452656,-4.183865,-3.601789,-16.376925,-16.465139,-16.228628,-13.852739,6
73158418,-11.145782,-12.034035,-0.888252,11.589909,-5.128765,-6.461143,-4.206753,-3.647137,-16.414785,-16.501522,-16.265726,-13.888645,6
73160415,-11.142206,-12.031078,-0.888872,11.586642,-5.126667,-6.459975,-4.210567,-3.655624,-16.424322,-16.510582,-16.275024,-13.908482,6
73162412,-11.176157,-12.039328,-0.863171,11.607742,-5.156493,-6.451249,-4.193354,-3.626728,-16.405678,-16.492844,-16.256380,-13.910675,6
73164410,-11.236858,-12.054110,-0.817251,11.645484,-5.209804,-6.435680,-4.162312,-3.569603,-16.362381,-16.450071,-16.214085,-13.899326,6
73166405,-11.305952,-12.072897,-0.766945,11.689425,-5.269504,-6.419921,-4.123402,-3.497696,-16.305494,-16.395092,-16.159010,-13.878298,6
73168402,-11.354208,-12.084579,-0.730371,11.719394,-5.311918,-6.407475,-4.096842,-3.444052,-16.258574,-16.349888,-16.113329,-13.862896,6
73170399,-11.365223,-12.088060,-0.722837,11.726642,-5.321193,-6.405449,-4.089117,-3.426361,-16.242552,-16.334105,-16.098309,-13.870096,6
73172396,-11.324644,-12.072515,-0.747871,11.698580,-5.288386,-6.410193,-4.100370,-3.452063,-16.262865,-16.353559,-16.117907,-13.867426,6
73174393,-11.253500,-12.054968,-0.801468,11.654234,-5.226016,-6.428218,-4.140472,-3.523397,-16.319227,-16.408348,-16.172743,-13.884974,6
73176390,-11.193895,-12.039471,-0.845575,11.616683,-5.174160,-6.442523,-4.176044,-3.591490,-16.374731,-16.463089,-16.226673,-13.930082,6
73178386,-11.161613,-12.030172,-0.868559,11.595893,-5.146527,-6.449366,-4.197645,-3.636312,-16.412449,-16.499615,-16.263533,-13.966656,6
73180383,-11.160469,-12.029457,-0.868988,11.594963,-5.145741,-6.449223,-4.201746,-3.647614,-16.423368,-16.508913,-16.273117,-13.989878,6
73182380,-11.191273,-12.039614,-0.848341,11.615443,-5.171466,-6.443977,-4.187727,-3.622770,-16.406107,-16.492319,-16.256285,-13.996506,6
73184378,-11.250353,-12.054634,-0.804281,11.652493,-5.223036,-6.429458,-4.159451,-3.568363,-16.363716,-16.450930,-16.215229,-13.989401,6
73186374,-11.320162,-12.072659,-0.752497,11.696410,-5.283833,-6.412578,-4.120064,-3.496647,-16.305542,-16.394949,-16.158915,-13.968325,6
73188371,-11.370611,-12.087917,-0.717306,11.729264,-5.326653,-6.402612,-4.094172,-3.443813,-16.259480,-16.349506,-16.113853,-13.952541,6
73190368,-11.381102,-12.095165,-0.714064,11.738133,-5.333519,-6.404614,-4.088545,-3.427601,-16.242647,-16.333723,-16.098452,-13.961601,6
73192364,-11.344719,-12.085724,-0.741005,11.715221,-5.301857,-6.413364,-4.106760,-3.460026,-16.265297,-16.355896,-16.120577,-13.991451,6
73194361,-11.273432,-12.066174,-0.792742,11.669803,-5.240345,-6.429458,-4.145527,-3.531981,-16.320801,-16.410160,-16.174030,-14.038467,6
73196358,-11.207533,-12.048674,-0.841141,11.628103,-5.183196,-6.444907,-4.180956,-3.601360,-16.375828,-16.463852,-16.227818,-14.083719,6
73198355,-11.171246,-12.038660,-0.867414,11.604953,-5.151916,-6.453037,-4.203558,-3.647041,-16.414261,-16.500807,-16.265059,-14.120054,6
73200352,-11.167383,-12.037373,-0.869989,11.602378,-5.148697,-6.453681,-4.208755,-3.657913,-16.425085,-16.511011,-16.274977,-14.140892,6
73202348,-11.202192,-12.051439,-0.849247,11.626816,-5.176473,-6.450343,-4.198313,-3.636599,-16.409159,-16.495514,-16.259527,-14.147472,6
73204345,-11.263466,-12.070656,-0.807190,11.667061,-5.228138,-6.438923,-4.170275,-3.581238,-16.367912,-16.454649,-16.218853,-14.140224,6
73206342,-11.331797,-12.087393,-0.755596,11.709595,-5.288100,-6.421494,-4.130220,-3.506994,-16.311026,-16.399002,-16.163015,-14.118433,6
73208339,-11.380768,-12.100410,-0.719643,11.740589,-5.330563,-6.410027,-4.102898,-3.451157,-16.263008,-16.352701,-16.116810,-14.098692,6
73210335,-11.388016,-12.101126,-0.713110,11.744571,-5.337453,-6.407118,-4.087543,-3.426456,-16.240883,-16.332674,-16.096973,-14.084768,6
73212332,-11.345482,-12.087059,-0.741577,11.716270,-5.301952,-6.414318,-4.104948,-3.456783,-16.262007,-16.352224,-16.117144,-14.076042,6
73214328,-11.275291,-12.070704,-0.795412,11.672997,-5.239940,-6.433058,-4.143572,-3.528357,-16.318893,-16.406631,-16.171551,-14.118814,6
73216325,-11.206341,-12.052488,-0.846148,11.629415,-5.180097,-6.449318,-4.181385,-3.600311,-16.374636,-16.462183,-16.226196,-14.166880,6
73218322,-11.169291,-12.043524,-0.874233,11.606407,-5.147529,-6.458879,-4.206133,-3.647232,-16.413498,-16.500568,-16.264343,-14.203501,6
73220318,-11.168242,-12.044001,-0.875759,11.606121,-5.146241,-6.459880,-4.209566,-3.657150,-16.424084,-16.510296,-16.274166,-14.224195,6
73222315,-11.201954,-12.056732,-0.854778,11.629343,-5.173588,-6.455755,-4.195452,-3.632641,-16.407585,-16.494083,-16.258097,-14.229822,6
73224314,-11.262560,-12.075663,-0.813103,11.669111,-5.224729,-6.444383,-4.165888,-3.577328,-16.365337,-16.452980,-16.217041,-14.221478,6
73226309,-11.334324,-12.094545,-0.760221,11.714435,-5.287051,-6.427383,-4.126883,-3.505993,-16.307974,-16.397572,-16.161013,-14.198971,6
73228307,-11.384201,-12.108612,-0.724411,11.746407,-5.329895,-6.416512,-4.101419,-3.451443,-16.260433,-16.351509,-16.115999,-14.182663,6
73230302,-11.395168,-12.112093,-0.716925,11.753631,-5.339122,-6.414509,-4.094458,-3.434420,-16.243172,-16.334248,-16.099310,-14.190054,6
73232302,-11.354685,-12.101889,-0.747204,11.728287,-5.303741,-6.424546,-4.108191,-3.462696,-16.262674,-16.354179,-16.118670,-14.213610,6
73234299,-11.254549,-12.060595,-0.806046,11.657572,-5.224252,-6.433320,-4.075575,-3.468275,-16.282606,-16.383791,-16.144800,-14.091349,6
73236296,-11.155891,-12.017727,-0.861835,11.586809,-5.147028,-6.439781,-4.118156,-3.544283,-16.338873,-16.441870,-16.202736,-13.881683,6
73238293,-11.121368,-12.009907,-0.888538,11.565638,-5.116415,-6.449223,-4.200649,-3.640938,-16.410303,-16.497946,-16.262102,-13.901377,6
73240290,-11.120892,-12.013245,-0.892353,11.567068,-5.114269,-6.452799,-4.209709,-3.654528,-16.423893,-16.510582,-16.274929,-13.926220,6
73242287,-11.154604,-12.023973,-0.869370,11.589289,-5.142617,-6.446671,-4.198837,-3.631163,-16.408062,-16.494846,-16.259384,-13.934374,6
73244285,-11.213827,-12.043428,-0.829601,11.628628,-5.192113,-6.436515,-4.169750,-3.576374,-16.366959,-16.454172,-16.218233,-13.927174,6
73246281,-11.286831,-12.064886,-0.778055,11.675858,-5.254388,-6.421471,-4.132128,-3.504658,-16.310072,-16.399574,-16.162395,-13.904476,6
73248277,-11.339903,-12.075281,-0.735378,11.707592,-5.302262,-6.405330,-4.098845,-3.443670,-16.260338,-16.350222,-16.113520,-13.861179,6
73250274,-11.355495,-12.081528,-0.726032,11.718512,-5.314732,-6.403780,-4.094744,-3.428125,-16.242599,-16.333055,-16.097546,-13.834763,6
73252271,-11.322594,-12.074041,-0.751448,11.698318,-5.285573,-6.412745,-4.114008,-3.458834,-16.263914,-16.354370,-16.117907,-13.861704,6
73254268,-11.256933,-12.056780,-0.799847,11.656857,-5.228543,-6.428313,-4.151297,-3.526783,-16.318941,-16.407299,-16.170788,-13.906527,6
73256264,-11.191750,-12.040758,-0.849009,11.616254,-5.171371,-6.444883,-4.187918,-3.597832,-16.375303,-16.462421,-16.225195,-13.954687,6
73258261,-11.153984,-12.033796,-0.879812,11.593890,-5.137086,-6.456804,-4.213762,-3.646469,-16.414785,-16.500711,-16.264439,-13.993597,6
73260258,-11.150408,-12.033939,-0.883532,11.592174,-5.133438,-6.458735,-4.219723,-3.660154,-16.426611,-16.512489,-16.277027,-14.016485,6
73262257,-11.181068,-12.043285,-0.862217,11.612177,-5.159426,-6.452751,-4.206848,-3.636456,-16.411161,-16.497374,-16.260862,-14.021778,6
73264253,-11.232471,-12.050629,-0.818157,11.641550,-5.207157,-6.434393,-4.168701,-3.572655,-16.365242,-16.453123,-16.215658,-13.983679,6
73266250,-11.291981,-12.061548,-0.769567,11.676764,-5.261207,-6.415558,-4.125071,-3.496838,-16.305256,-16.394711,-16.158152,-13.880396,6
73268246,-11.341524,-12.078238,-0.736713,11.709881,-5.302405,-6.407475,-4.107714,-3.450441,-16.261053,-16.351891,-16.115189,-13.842773,6
73270242,-11.361742,-12.087059,-0.725317,11.724401,-5.318213,-6.406188,-4.102898,-3.435326,-16.244745,-16.335535,-16.099072,-13.849592,6
73272240,-11.331177,-12.080717,-0.749540,11.705947,-5.290818,-6.415129,-4.114962,-3.459120,-16.263390,-16.353416,-16.116714,-13.870955,6
73274237,-11.258650,-12.060547,-0.801897,11.659598,-5.228376,-6.431222,-4.148626,-3.523874,-16.314363,-16.403532,-16.165924,-13.875532,6
73276233,-11.194849,-12.045956,-0.851107,11.620402,-5.171871,-6.448531,-4.189777,-3.595304,-16.373253,-16.460133,-16.223526,-13.909864,6
73278230,-11.158419,-12.038279,-0.879860,11.598349,-5.139279,-6.459069,-4.215908,-3.642130,-16.413975,-16.500044,-16.263533,-13.949442,6
73280227,-11.155939,-12.039948,-0.884008,11.597943,-5.135965,-6.461978,-4.222536,-3.656626,-16.426802,-16.512299,-16.275692,-13.972664,6
73282223,-11.189175,-12.051105,-0.861931,11.620140,-5.163622,-6.456518,-4.212236,-3.636122,-16.411304,-16.497469,-16.261005,-13.980246,6
73284221,-11.246538,-12.066650,-0.820112,11.656594,-5.213213,-6.443381,-4.182386,-3.583384,-16.370821,-16.457701,-16.220570,-13.974380,6
73286217,-11.318398,-12.084913,-0.766516,11.701655,-5.275941,-6.425714,-4.143476,-3.507948,-16.313839,-16.402197,-16.165304,-13.950300,6
73288216,-11.376190,-12.098885,-0.722694,11.737537,-5.326748,-6.410789,-4.115629,-3.451824,-16.265821,-16.355085,-16.118860,-13.936615,6
73290216,-11.385441,-12.097883,-0.712442,11.741662,-5.336499,-6.405163,-4.096699,-3.423929,-16.242695,-16.332817,-16.096449,-13.913250,6
73292216,-11.350441,-12.088108,-0.737667,11.719275,-5.306387,-6.412888,-4.115915,-3.455257,-16.262627,-16.351938,-16.116095,-13.914776,6
73294204,-11.281157,-12.072086,-0.790930,11.676621,-5.245113,-6.431508,-4.153585,-3.525686,-16.316938,-16.405439,-16.168833,-13.959455,6
73296201,-11.212826,-12.053680,-0.840855,11.633253,-5.185986,-6.447268,-4.191256,-3.595400,-16.373825,-16.460657,-16.223812,-14.007378,6
73298198,-11.172009,-12.042809,-0.870800,11.607409,-5.150604,-6.456804,-4.216766,-3.643847,-16.413879,-16.500139,-16.263771,-14.046860,6
73300195,-11.164856,-12.039757,-0.874901,11.602306,-5.144978,-6.457329,-4.224110,-3.658390,-16.427231,-16.513062,-16.276884,-14.071512,6
73302191,-11.196947,-12.052584,-0.855637,11.624765,-5.170655,-6.454110,-4.213905,-3.637743,-16.413116,-16.498756,-16.263199,-14.080143,6
73304189,-11.255789,-12.071133,-0.815344,11.663461,-5.220222,-6.443238,-4.184914,-3.585768,-16.373110,-16.459131,-16.223049,-14.071798,6
73306185,-11.327314,-12.092447,-0.765133,11.709881,-5.281091,-6.428790,-4.145336,-3.513575,-16.315651,-16.403627,-16.167212,-14.046717,6
73308182,-11.379337,-12.107658,-0.728321,11.743498,-5.325508,-6.417990,-4.121733,-3.457737,-16.268301,-16.356421,-16.120291,-14.036417,6
73310178,-11.393070,-12.111902,-0.718832,11.752486,-5.337119,-6.415367,-4.111195,-3.437185,-16.248083,-16.336679,-16.101122,-14.043283,6
73312175,-11.357594,-12.099600,-0.742006,11.728597,-5.307794,-6.420803,-4.123163,-3.462172,-16.266155,-16.354609,-16.118956,-14.067507,6
73314172,-11.285353,-12.077427,-0.792074,11.681390,-5.246639,-6.434751,-4.153919,-3.524637,-16.317797,-16.405725,-16.169739,-14.105129,6
73316169,-11.209440,-12.051105,-0.841665,11.630273,-5.183887,-6.446385,-4.183388,-3.587675,-16.370392,-16.457796,-16.221714,-14.114714,6
73318165,-11.166668,-12.038708,-0.872040,11.602688,-5.147314,-6.455374,-4.212952,-3.640699,-16.412210,-16.497946,-16.262484,-14.131451,6
73320162,-11.160707,-12.037325,-0.876617,11.599016,-5.142045,-6.456971,-4.221058,-3.655243,-16.425991,-16.512012,-16.275358,-14.154148,6
73322159,-11.193705,-12.045288,-0.851583,11.619496,-5.171061,-6.448436,-4.208755,-3.633308,-16.411257,-16.497469,-16.260672,-14.159393,6
73324156,-11.255741,-12.062502,-0.806761,11.659122,-5.224490,-6.434631,-4.178429,-3.576612,-16.369867,-16.456556,-16.220570,-14.149189,6
73326152,-11.327171,-12.080383,-0.753212,11.703777,-5.286980,-6.416798,-4.138422,-3.501225,-16.312981,-16.400433,-16.164398,-14.121199,6
73328149,-11.380816,-12.096310,-0.715494,11.738563,-5.332661,-6.405902,-4.112530,-3.445244,-16.264629,-16.353846,-16.117430,-14.107323,6
73330146,-11.396837,-12.102079,-0.705242,11.749458,-5.345798,-6.403661,-4.102087,-3.422308,-16.244173,-16.334486,-16.098213,-14.110708,6
73332143,-11.363935,-12.093639,-0.729704,11.728787,-5.317116,-6.411672,-4.115438,-3.448534,-16.262293,-16.351843,-16.116428,-14.136600,6
73334141,-11.290407,-12.071657,-0.781250,11.681032,-5.254579,-6.426454,-4.149723,-3.514242,-16.315651,-16.403818,-16.168594,-14.181423,6
73336140,-11.211967,-12.044048,-0.832081,11.628008,-5.189943,-6.438065,-4.160595,-3.561687,-16.360855,-16.450119,-16.213846,-14.183998,6
73338137,-11.132574,-12.004900,-0.872326,11.568737,-5.130124,-6.438613,-4.116440,-3.547382,-16.369343,-16.467619,-16.228580,-13.948536,6
73340133,-11.111259,-11.991405,-0.880146,11.551332,-5.115557,-6.435776,-4.185486,-3.618526,-16.411257,-16.501522,-16.264391,-13.844824,6
73342130,-11.146975,-12.005997,-0.859022,11.576486,-5.143976,-6.432509,-4.195499,-3.616428,-16.407347,-16.493750,-16.257715,-13.839197,6
73344128,-11.209536,-12.030220,-0.820684,11.619878,-5.194426,-6.425452,-4.170227,-3.566933,-16.369915,-16.455936,-16.220045,-13.835812,6
73346125,-11.279774,-12.051773,-0.771999,11.665773,-5.253887,-6.411886,-4.130554,-3.495646,-16.313839,-16.402102,-16.165829,-13.817835,6
73348121,-11.336184,-12.069130,-0.732946,11.702657,-5.301619,-6.401038,-4.102802,-3.436184,-16.263914,-16.354704,-16.117954,-13.800955,6
73350118,-11.357641,-12.076569,-0.718927,11.717105,-5.319357,-6.397748,-4.095554,-3.415632,-16.243649,-16.334438,-16.098070,-13.808107,6
73352115,-11.326170,-12.066793,-0.740623,11.696482,-5.292773,-6.403708,-4.105568,-3.438473,-16.259670,-16.350174,-16.113997,-13.828468,6
73354111,-11.250401,-12.042713,-0.792313,11.646557,-5.229044,-6.417513,-4.137373,-3.503132,-16.310358,-16.399813,-16.163874,-13.831425,6
73356108,-11.182165,-12.027550,-0.845385,11.604857,-5.168390,-6.436467,-4.181814,-3.580856,-16.370726,-16.457176,-16.221666,-13.867426,6
73358105,-11.142778,-12.021303,-0.878525,11.582041,-5.132127,-6.449914,-4.209375,-3.633785,-16.412783,-16.498613,-16.262102,-13.908052,6
73360102,-11.143398,-12.025928,-0.882530,11.584663,-5.130434,-6.454229,-4.219103,-3.650379,-16.427231,-16.512442,-16.276884,-13.934231,6
73362099,-11.178446,-12.039471,-0.861025,11.608958,-5.158710,-6.450248,-4.208612,-3.630733,-16.413307,-16.499662,-16.263199,-13.943005,6
73364096,-11.236000,-12.057304,-0.821304,11.646652,-5.207348,-6.439304,-4.182673,-3.579426,-16.374159,-16.460752,-16.225195,-13.937950,6
73366092,-11.305809,-12.077761,-0.771952,11.691785,-5.266929,-6.424856,-4.146385,-3.509998,-16.318989,-16.407537,-16.171169,-13.918591,6
73368089,-11.358261,-12.090492,-0.732231,11.724377,-5.313015,-6.411362,-4.119110,-3.451252,-16.270256,-16.358900,-16.123486,-13.905478,6
73370086,-11.378002,-12.098169,-0.720167,11.738086,-5.328918,-6.409168,-4.108381,-3.426743,-16.248608,-16.338110,-16.102028,-13.911009,6
73372083,-11.347389,-12.088776,-0.741386,11.718082,-5.303001,-6.415081,-4.120684,-3.448343,-16.263533,-16.353416,-16.116905,-13.933039,6
73374079,-11.270285,-12.063122,-0.792837,11.666703,-5.238724,-6.427979,-4.148293,-3.505659,-16.311121,-16.400146,-16.163969,-13.938761,6
73376076,-11.201572,-12.046337,-0.844765,11.623955,-5.178404,-6.445551,-4.191685,-3.581333,-16.370821,-16.457748,-16.222000,-13.963985,6
73378073,-11.161041,-12.037516,-0.876474,11.599278,-5.142283,-6.456995,-4.216337,-3.629971,-16.412067,-16.498089,-16.262293,-14.004993,6
73380069,-11.153793,-12.034464,-0.880671,11.594129,-5.136561,-6.457567,-4.222202,-3.645134,-16.426468,-16.512012,-16.275740,-14.029741,6
73382066,-11.182499,-12.042236,-0.859737,11.612368,-5.161381,-6.450987,-4.209375,-3.624105,-16.413450,-16.498947,-16.262531,-14.037752,6
73384064,-11.238241,-12.057638,-0.819397,11.647940,-5.209422,-6.438518,-4.181957,-3.572655,-16.373682,-16.460037,-16.224146,-14.030266,6
73386060,-11.304951,-12.076473,-0.771523,11.690712,-5.266714,-6.423998,-4.141712,-3.501225,-16.316843,-16.405249,-16.169500,-14.004183,6
73388056,-11.355114,-12.084675,-0.729561,11.719894,-5.312777,-6.407118,-4.108000,-3.439808,-16.265345,-16.355276,-16.118813,-13.954735,6
73390053,-11.374474,-12.091446,-0.716972,11.732960,-5.328751,-6.404209,-4.104328,-3.420973,-16.245937,-16.335344,-16.099501,-13.939285,6
73392050,-11.347151,-12.084770,-0.737619,11.715961,-5.304766,-6.411195,-4.118967,-3.443050,-16.262245,-16.351557,-16.115284,-13.966417,6
73394047,-11.280966,-12.069988,-0.789022,11.675477,-5.245972,-6.429505,-4.155731,-3.509235,-16.314077,-16.402578,-16.165781,-14.012671,6
73396044,-11.211443,-12.052011,-0.840569,11.631727,-5.185437,-6.446290,-4.192924,-3.582525,-16.370726,-16.457987,-16.222000,-14.060783,6
73398040,-11.165714,-12.042618,-0.876904,11.604166,-5.144405,-6.459761,-4.220104,-3.636551,-16.413975,-16.500044,-16.264248,-14.102125,6
73400037,-11.159229,-12.043476,-0.884247,11.601353,-5.137491,-6.463861,-4.226828,-3.653812,-16.430330,-16.514969,-16.278505,-14.127207,6
73402034,-11.188602,-12.054634,-0.866032,11.621618,-5.161285,-6.460333,-4.214811,-3.634882,-16.417503,-16.502571,-16.266441,-14.133310,6
73404031,-11.241865,-12.068558,-0.826693,11.655211,-5.207586,-6.447625,-4.186440,-3.583527,-16.377592,-16.463375,-16.227436,-14.125395,6
73406028,-11.312819,-12.087870,-0.775051,11.700344,-5.268884,-6.431460,-4.150295,-3.512716,-16.322565,-16.409492,-16.173458,-14.110708,6
73408025,-11.367750,-12.100744,-0.732994,11.734247,-5.317378,-6.416869,-4.114342,-3.448200,-16.270590,-16.358900,-16.122055,-14.084959,6
73410021,-11.380053,-12.098455,-0.718403,11.739254,-5.330825,-6.408429,-4.096365,-3.415966,-16.243029,-16.333103,-16.096401,-14.026403,6
73412018,-11.350250,-12.093639,-0.743389,11.721945,-5.303431,-6.418514,-4.117727,-3.445482,-16.261578,-16.350126,-16.114759,-14.021015,6
73414015,-11.281729,-12.077570,-0.795841,11.679649,-5.242944,-6.436706,-4.153919,-3.512096,-16.314220,-16.400814,-16.165733,-14.065599,6
73416012,-11.211252,-12.059546,-0.848293,11.635399,-5.181479,-6.453919,-4.190826,-3.581190,-16.371107,-16.457701,-16.221189,-14.111042,6
73418009,-11.167955,-12.049007,-0.881052,11.608481,-5.143452,-6.465030,-4.217434,-3.632164,-16.412926,-16.498852,-16.262722,-14.149761,6
73420005,-11.158371,-12.045288,-0.886917,11.601830,-5.135727,-6.466103,-4.226255,-3.649807,-16.428375,-16.513872,-16.277838,-14.174795,6
73422002,-11.185694,-12.054729,-0.869036,11.620212,-5.158329,-6.461883,-4.216003,-3.630161,-16.416454,-16.501665,-16.265297,-14.182377,6
73423999,-11.239338,-12.069130,-0.829792,11.654234,-5.204773,-6.449461,-4.188824,-3.581142,-16.377497,-16.463709,-16.227531,-14.174891,6
73425996,-11.307192,-12.088156,-0.780964,11.697674,-5.263114,-6.434560,-4.149103,-3.509808,-16.321850,-16.409206,-16.172934,-14.146280,6
73427992,-11.363125,-12.104130,-0.741005,11.733627,-5.311060,-6.422567,-4.121256,-3.453636,-16.272593,-16.361284,-16.125298,-14.128780,6
73429989,-11.384916,-12.111568,-0.726652,11.748242,-5.329132,-6.419110,-4.109192,-3.429127,-16.250134,-16.338968,-16.103697,-14.135075,6
73431986,-11.356592,-12.101936,-0.745344,11.729264,-5.305624,-6.423640,-4.119921,-3.448343,-16.264391,-16.353083,-16.117859,-14.158344,6
73433983,-11.286163,-12.080002,-0.793839,11.683083,-5.246162,-6.436920,-4.147625,-3.508186,-16.312456,-16.400003,-16.164637,-14.181948,6
73435982,-11.212158,-12.057161,-0.845003,11.634660,-5.183578,-6.451082,-4.185390,-3.579473,-16.367960,-16.454744,-16.219664,-14.189672,6
73437979,-11.169672,-12.046051,-0.876379,11.607862,-5.146646,-6.461215,-4.208183,-3.628206,-16.409445,-16.495275,-16.259909,-14.215136,6
73439976,-11.136341,-12.021017,-0.884676,11.578679,-5.125833,-6.452847,-4.143047,-3.579712,-16.394854,-16.486311,-16.247272,-14.050865,6
73441973,-11.143064,-12.018776,-0.875711,11.580920,-5.133677,-6.447244,-4.161549,-3.586149,-16.391182,-16.483784,-16.246748,-13.852739,6
73443971,-11.202574,-12.034988,-0.832415,11.618781,-5.185080,-6.433702,-4.181004,-3.577995,-16.374731,-16.461611,-16.225624,-13.851643,6
73445967,-11.276674,-12.056875,-0.780201,11.666775,-5.248237,-6.418538,-4.144716,-3.508186,-16.320753,-16.408300,-16.172171,-13.829517,6
73447963,-11.335945,-12.072563,-0.736618,11.704254,-5.299664,-6.404591,-4.114008,-3.446054,-16.268349,-16.357470,-16.121769,-13.795996,6
73449960,-11.358833,-12.081099,-0.722265,11.719966,-5.318284,-6.401682,-4.103661,-3.422117,-16.243982,-16.334343,-16.099024,-13.763618,6
73451957,-11.329937,-12.076569,-0.746632,11.703253,-5.291653,-6.411600,-4.120541,-3.449345,-16.261196,-16.350794,-16.114950,-13.788319,6
73453954,-11.261272,-12.060022,-0.798750,11.660647,-5.231261,-6.429386,-4.158115,-3.515053,-16.312218,-16.400766,-16.164637,-13.836002,6
73455951,-11.192131,-12.040997,-0.848866,11.616564,-5.171633,-6.444931,-4.194403,-3.585768,-16.369629,-16.456890,-16.220284,-13.884926,6
73457947,-11.147833,-12.030554,-0.882721,11.589193,-5.132556,-6.456637,-4.220343,-3.636456,-16.412687,-16.498184,-16.262245,-13.925028,6
73459944,-11.139917,-12.030602,-0.890684,11.585259,-5.124617,-6.460643,-4.229116,-3.655624,-16.429043,-16.513824,-16.278267,-13.950443,6
73461941,-11.171913,-12.043095,-0.871181,11.607504,-5.150366,-6.457138,-4.220057,-3.640604,-16.418266,-16.503716,-16.267681,-13.961744,6
73463938,-11.225510,-12.058687,-0.833178,11.642098,-5.196166,-6.445932,-4.193974,-3.591394,-16.381121,-16.467190,-16.231060,-13.957214,6
73465934,-11.290455,-12.076759,-0.786304,11.683607,-5.252075,-6.431532,-4.156256,-3.519964,-16.326237,-16.413164,-16.176510,-13.933182,6
73467931,-11.349487,-12.092066,-0.742579,11.720777,-5.303454,-6.417322,-4.124737,-3.459406,-16.274643,-16.363144,-16.127062,-13.917875,6
73469928,-11.369848,-12.097692,-0.727844,11.733770,-5.321002,-6.412768,-4.106855,-3.428888,-16.248322,-16.338301,-16.102171,-13.913488,6
73471924,-11.336184,-12.087488,-0.751305,11.711836,-5.292439,-6.419396,-4.114723,-3.445053,-16.258574,-16.348648,-16.113043,-13.893461,6
73473921,-11.275768,-12.075806,-0.800037,11.675787,-5.237865,-6.437922,-4.151821,-3.513765,-16.311264,-16.399717,-16.163540,-13.923883,6
73475918,-11.210203,-12.057400,-0.847197,11.633801,-5.181503,-6.452298,-4.189014,-3.586817,-16.369534,-16.456413,-16.220140,-13.970613,6
73477914,-11.170101,-12.048292,-0.878191,11.609197,-5.145955,-6.463242,-4.215574,-3.637362,-16.411972,-16.498661,-16.262102,-14.010859,6
73479911,-11.162424,-12.047338,-0.884914,11.604881,-5.138755,-6.466126,-4.223299,-3.654385,-16.427612,-16.513824,-16.277885,-14.033985,6
73481908,-11.188793,-12.055588,-0.866795,11.622190,-5.160999,-6.461191,-4.213762,-3.636646,-16.416836,-16.502905,-16.266823,-14.043188,6
73483906,-11.239767,-12.073708,-0.833941,11.656737,-5.202913,-6.453824,-4.187393,-3.588772,-16.380262,-16.467190,-16.230249,-14.038515,6
73485901,-11.305666,-12.092876,-0.787210,11.699271,-5.259228,-6.440043,-4.149246,-3.517675,-16.324711,-16.413307,-16.175795,-14.015245,6
73487898,-11.363363,-12.109804,-0.746441,11.736584,-5.308461,-6.428123,-4.121542,-3.458071,-16.274261,-16.363049,-16.127110,-13.999510,6
73489896,-11.381960,-12.113047,-0.731087,11.747503,-5.325437,-6.422067,-4.103136,-3.424692,-16.246653,-16.336823,-16.101646,-13.985729,6
73491892,-11.347914,-12.099361,-0.751448,11.723638,-5.298233,-6.425405,-4.111719,-3.442383,-16.257668,-16.347742,-16.112041,-13.959217,6
73493889,-11.283779,-12.082624,-0.798845,11.683202,-5.242467,-6.440735,-4.151058,-3.512430,-16.310835,-16.398811,-16.162348,-13.994694,6
73495886,-11.217308,-12.065077,-0.847769,11.641192,-5.184770,-6.456423,-4.188013,-3.583479,-16.368961,-16.455078,-16.219234,-14.042330,6
73497882,-11.174393,-12.056017,-0.881624,11.615205,-5.146384,-6.468821,-4.212952,-3.635693,-16.411877,-16.497374,-16.261911,-14.080954,6
73499879,-11.162376,-12.051201,-0.888824,11.606789,-5.136776,-6.470013,-4.221153,-3.655005,-16.429234,-16.514635,-16.278887,-14.105177,6
73501876,-11.184502,-12.054729,-0.870228,11.619616,-5.157137,-6.462479,-4.210234,-3.636217,-16.417885,-16.503048,-16.267681,-14.112663,6
73503873,-11.234856,-12.068462,-0.833607,11.651659,-5.200624,-6.451035,-4.183435,-3.587532,-16.380596,-16.466236,-16.230965,-14.107704,6
73505870,-11.302185,-12.088633,-0.786448,11.695409,-5.257869,-6.437540,-4.145908,-3.517437,-16.325140,-16.412973,-16.176844,-14.087152,6
73507867,-11.361647,-12.104845,-0.743198,11.733246,-5.309224,-6.424022,-4.116917,-3.457022,-16.274118,-16.362953,-16.127920,-14.071798,6
73509863,-11.379766,-12.107182,-0.727415,11.743474,-5.326176,-6.417298,-4.099560,-3.425455,-16.245651,-16.336441,-16.100502,-14.049339,6
73511860,-11.354256,-12.101364,-0.747108,11.727810,-5.303574,-6.424236,-4.113293,-3.447771,-16.258907,-16.349506,-16.112804,-14.036226,6
73513857,-11.290169,-12.088203,-0.798035,11.689186,-5.246067,-6.443119,-4.148722,-3.513622,-16.310978,-16.399145,-16.162777,-14.078474,6
73515853,-11.215734,-12.069416,-0.853682,11.642575,-5.181026,-6.461549,-4.188013,-3.585386,-16.368341,-16.455221,-16.219330,-14.126873,6
73517850,-11.167145,-12.057829,-0.890684,11.612487,-5.138230,-6.474257,-4.215908,-3.638220,-16.412115,-16.498089,-16.261721,-14.166069,6
73519847,-11.154842,-12.053967,-0.899124,11.604404,-5.127859,-6.476545,-4.223442,-3.656673,-16.429472,-16.514635,-16.278791,-14.190865,6
73521844,-11.177826,-12.061167,-0.883341,11.619496,-5.147243,-6.472254,-4.213476,-3.641796,-16.418743,-16.504812,-16.269207,-14.200783,6
73523841,-11.229944,-12.077713,-0.847769,11.653829,-5.191088,-6.462741,-4.187155,-3.593254,-16.382313,-16.468954,-16.232872,-14.195251,6
73525837,-11.298466,-12.097836,-0.799370,11.698151,-5.249548,-6.448603,-4.149580,-3.524017,-16.327000,-16.415071,-16.178799,-14.172554,6
73527834,-11.356878,-12.114096,-0.757217,11.735487,-5.299830,-6.435657,-4.122066,-3.465128,-16.277122,-16.365862,-16.129827,-14.159966,6
73529831,-11.382532,-12.122011,-0.739479,11.752272,-5.321527,-6.430745,-4.108143,-3.435946,-16.251898,-16.341400,-16.105366,-14.164543,6
73531828,-11.355639,-12.114048,-0.758410,11.734843,-5.298615,-6.436229,-4.113960,-3.448963,-16.260958,-16.350603,-16.115046,-14.178944,6
73533825,-11.282253,-12.086439,-0.804186,11.684346,-5.239034,-6.445312,-4.134083,-3.498173,-16.303158,-16.393757,-16.156864,-14.157104,6
73535821,-11.214542,-12.068748,-0.854206,11.641645,-5.180168,-6.461477,-4.175568,-3.574896,-16.363478,-16.451693,-16.215372,-14.175987,6
73537818,-11.169958,-12.059069,-0.889111,11.614513,-5.140424,-6.474090,-4.204702,-3.629065,-16.409016,-16.495275,-16.259146,-14.214849,6
73539816,-11.158180,-12.054396,-0.896215,11.606288,-5.130982,-6.475306,-4.216528,-3.647614,-16.427135,-16.513443,-16.276217,-14.238167,6
73541814,-11.180830,-12.061214,-0.880384,11.621022,-5.150223,-6.470799,-4.203224,-3.627634,-16.414499,-16.501284,-16.264868,-14.239120,6
73543813,-11.209440,-12.054634,-0.845194,11.632037,-5.182123,-6.449914,-4.107285,-3.515053,-16.344833,-16.442013,-16.202068,-14.047194,6
73545809,-11.255026,-12.060547,-0.805521,11.657786,-5.224752,-6.433034,-4.096556,-3.465700,-16.298389,-16.397524,-16.159010,-13.808346,6
73547805,-11.314917,-12.079048,-0.764132,11.696982,-5.275393,-6.421590,-4.119062,-3.450918,-16.273355,-16.362572,-16.126680,-13.794994,6
73549802,-11.344051,-12.089491,-0.745440,11.716771,-5.299306,-6.417465,-4.108381,-3.424644,-16.248512,-16.338778,-16.102791,-13.802242,6
73551799,-11.328411,-12.085629,-0.757217,11.707020,-5.285597,-6.421423,-4.119349,-3.442097,-16.259384,-16.349268,-16.113329,-13.826847,6
73553796,-11.265802,-12.070608,-0.804806,11.668205,-5.230498,-6.437707,-4.151630,-3.505421,-16.307783,-16.396904,-16.160440,-13.864470,6
73555792,-11.192703,-12.050200,-0.857496,11.621451,-5.167603,-6.453848,-4.187202,-3.576803,-16.363525,-16.451216,-16.214800,-13.868999,6
73557789,-11.150312,-12.043238,-0.892925,11.596775,-5.128694,-6.468081,-4.223061,-3.638077,-16.411400,-16.497183,-16.260958,-13.896751,6
73559786,-11.140823,-12.042665,-0.901842,11.591744,-5.119491,-6.472254,-4.233217,-3.660536,-16.430902,-16.516685,-16.280603,-13.925695,6
73561783,-11.165905,-12.055206,-0.889301,11.610556,-5.138302,-6.472254,-4.225349,-3.647900,-16.421366,-16.507816,-16.271257,-13.937378,6
73563780,-11.219358,-12.073660,-0.854301,11.646509,-5.182528,-6.463981,-4.201746,-3.601456,-16.387033,-16.472864,-16.236448,-13.933086,6
73565777,-11.290932,-12.091351,-0.800419,11.691141,-5.245256,-6.445885,-4.161882,-3.531504,-16.331148,-16.418505,-16.181946,-13.910246,6
73567773,-11.351633,-12.105656,-0.754023,11.728644,-5.298805,-6.429839,-4.125929,-3.463125,-16.276217,-16.365147,-16.128969,-13.881159,6
73569770,-11.373568,-12.110901,-0.737333,11.742234,-5.318117,-6.424117,-4.110050,-3.432322,-16.247988,-16.338539,-16.102886,-13.844538,6
73571767,-11.353302,-12.108183,-0.754881,11.730742,-5.299211,-6.431532,-4.124641,-3.453445,-16.260004,-16.350555,-16.114283,-13.862133,6
73573764,-11.287880,-12.090969,-0.803089,11.689425,-5.242395,-6.447029,-4.155922,-3.516769,-16.308928,-16.397619,-16.161013,-13.905048,6
73575760,-11.215258,-12.068939,-0.853682,11.642098,-5.180788,-6.461310,-4.194117,-3.590775,-16.367245,-16.453838,-16.217804,-13.953161,6
73577757,-11.168718,-12.058020,-0.889301,11.613369,-5.139709,-6.473660,-4.219532,-3.643942,-16.411591,-16.497564,-16.261387,-13.992310,6
73579754,-11.155415,-12.053061,-0.897646,11.604238,-5.128884,-6.475353,-4.229069,-3.663254,-16.429234,-16.516256,-16.279507,-14.020014,6
73581751,-11.179543,-12.059879,-0.880337,11.619711,-5.149603,-6.470108,-4.218626,-3.647375,-16.420174,-16.506863,-16.270685,-14.030218,6
73583749,-11.233282,-12.074804,-0.841522,11.654043,-5.195880,-6.458163,-4.194593,-3.602791,-16.385651,-16.472197,-16.236162,-14.026737,6
73585746,-11.303949,-12.094355,-0.790405,11.699152,-5.256772,-6.442380,-4.155493,-3.532505,-16.332245,-16.419363,-16.182709,-14.006281,6
73587741,-11.361122,-12.108326,-0.747204,11.734724,-5.306959,-6.427765,-4.119539,-3.464699,-16.276789,-16.366100,-16.129827,-13.970900,6
73589738,-11.386919,-12.116146,-0.729227,11.751533,-5.328846,-6.422687,-4.103947,-3.432083,-16.248369,-16.339064,-16.102839,-13.929319,6
73591735,-11.369562,-12.115097,-0.745535,11.742330,-5.312014,-6.430316,-4.117537,-3.451538,-16.260576,-16.350079,-16.114902,-13.948154,6
73593732,-11.304712,-12.099552,-0.794840,11.702132,-5.254936,-6.447196,-4.150009,-3.513622,-16.309214,-16.397333,-16.162348,-13.992405,6
73595728,-11.231947,-12.081957,-0.850010,11.656952,-5.190969,-6.465983,-4.188299,-3.587914,-16.367626,-16.454029,-16.218233,-14.040804,6
73597725,-11.182499,-12.070942,-0.888443,11.626720,-5.147028,-6.479692,-4.216146,-3.642368,-16.411972,-16.497707,-16.261435,-14.080000,6
73599722,-11.166239,-12.066698,-0.900459,11.616468,-5.132890,-6.483579,-4.227543,-3.665400,-16.430902,-16.516781,-16.280365,-14.106750,6
73601718,-11.189318,-12.073851,-0.884533,11.631584,-5.152392,-6.479192,-4.220438,-3.650761,-16.422081,-16.508865,-16.271687,-14.118147,6
73603715,-11.242867,-12.089682,-0.846815,11.666274,-5.198026,-6.468248,-4.193497,-3.601599,-16.386604,-16.473246,-16.236734,-14.111567,6
73605712,-11.311817,-12.110710,-0.798893,11.711264,-5.256462,-6.454802,-4.155493,-3.531981,-16.331863,-16.419268,-16.183710,-14.087439,6
73607709,-11.364937,-12.122345,-0.757408,11.743641,-5.303764,-6.439877,-4.123449,-3.466940,-16.277122,-16.366482,-16.131163,-14.040756,6
73609705,-11.392593,-12.129593,-0.737000,11.761093,-5.327797,-6.433296,-4.112625,-3.437805,-16.250944,-16.340780,-16.105366,-14.012861,6
73611702,-11.371994,-12.123442,-0.751448,11.747718,-5.310273,-6.437445,-4.120541,-3.451061,-16.260004,-16.349173,-16.114378,-14.031601,6
73613699,-11.306000,-12.104702,-0.798702,11.705351,-5.253649,-6.451702,-4.151392,-3.510427,-16.307831,-16.395807,-16.160202,-14.074707,6
73615695,-11.233330,-12.083578,-0.850248,11.658454,-5.191541,-6.466913,-4.187727,-3.582287,-16.365528,-16.452742,-16.216707,-14.121008,6
73617692,-11.184883,-12.072182,-0.887299,11.628532,-5.148792,-6.479740,-4.212475,-3.636312,-16.410780,-16.496611,-16.260433,-14.160204,6
73619689,-11.169910,-12.067652,-0.897741,11.618781,-5.136085,-6.482697,-4.221678,-3.657341,-16.429663,-16.515446,-16.278839,-14.186668,6
73621686,-11.191702,-12.072468,-0.880766,11.632085,-5.155468,-6.476617,-4.214001,-3.641701,-16.421127,-16.506815,-16.270685,-14.195728,6
73623683,-11.239386,-12.082195,-0.842810,11.660790,-5.198288,-6.462502,-4.191113,-3.596640,-16.386509,-16.472721,-16.237593,-14.190769,6
73625680,-11.302996,-12.100315,-0.797319,11.701655,-5.252838,-6.448817,-4.154205,-3.530216,-16.333437,-16.421080,-16.185379,-14.171171,6
73627676,-11.360788,-12.116623,-0.755835,11.738706,-5.302477,-6.436229,-4.125786,-3.468227,-16.280937,-16.369534,-16.134310,-14.152431,6
73629674,-11.387968,-12.126112,-0.738144,11.757040,-5.324912,-6.432128,-4.111385,-3.434467,-16.252565,-16.341782,-16.106367,-14.153433,6
73631670,-11.359549,-12.113428,-0.753880,11.736488,-5.302835,-6.433654,-4.107237,-3.434467,-16.254234,-16.344261,-16.108227,-14.128876,6
73633667,-11.289167,-12.089586,-0.800419,11.689377,-5.244374,-6.445003,-4.136562,-3.490877,-16.299534,-16.388369,-16.152668,-14.087391,6
73635664,-11.212301,-12.061167,-0.848866,11.636734,-5.181718,-6.455016,-4.170704,-3.558302,-16.355133,-16.443110,-16.206312,-14.073086,6
73637661,-11.165333,-12.050962,-0.885630,11.608148,-5.139852,-6.468296,-4.206181,-3.619528,-16.404057,-16.490173,-16.253233,-14.075613,6
73639658,-11.154127,-12.051535,-0.897408,11.602831,-5.128360,-6.474471,-4.218912,-3.645515,-16.426134,-16.510916,-16.274691,-14.104223,6
73641656,-11.176395,-12.058592,-0.882196,11.617494,-5.147099,-6.470394,-4.205656,-3.629541,-16.415930,-16.501951,-16.264868,-14.091778,6
73643656,-11.218071,-12.067175,-0.849104,11.642623,-5.184484,-6.458139,-4.155588,-3.560400,-16.370106,-16.458893,-16.220331,-14.007044,6
73645651,-11.254025,-12.060595,-0.806570,11.657310,-5.223727,-6.433582,-4.058647,-3.434753,-16.283274,-16.388226,-16.146564,-13.709259,6
73647649,-11.310196,-12.072802,-0.762606,11.691499,-5.273795,-6.417704,-4.095173,-3.433847,-16.263199,-16.358280,-16.121387,-13.605452,6
73649645,-11.339092,-12.080479,-0.741386,11.709785,-5.298853,-6.410933,-4.088640,-3.410959,-16.241121,-16.332674,-16.096973,-13.581085,6
73651642,-11.321878,-12.077713,-0.755835,11.699796,-5.283022,-6.416774,-4.101992,-3.428555,-16.252804,-16.343069,-16.106939,-13.591576,6
73653639,-11.259747,-12.063026,-0.803280,11.661386,-5.228233,-6.433153,-4.133511,-3.490686,-16.300488,-16.389418,-16.153097,-13.636398,6
73655635,-11.191225,-12.046623,-0.855398,11.618924,-5.167913,-6.451011,-4.172373,-3.563738,-16.359425,-16.446543,-16.209793,-13.685226,6
73657632,-11.141825,-12.034845,-0.893021,11.588335,-5.124402,-6.463933,-4.203844,-3.619480,-16.406250,-16.491985,-16.255903,-13.728428,6
73659629,-11.129856,-12.031889,-0.902033,11.580873,-5.113912,-6.466961,-4.217243,-3.644991,-16.426849,-16.512775,-16.276789,-13.757992,6
73661625,-11.156940,-12.044239,-0.887299,11.600590,-5.134821,-6.465769,-4.212236,-3.635263,-16.420126,-16.506195,-16.269636,-13.772583,6
73663622,-11.211014,-12.062597,-0.851583,11.636806,-5.179715,-6.457090,-4.188251,-3.589630,-16.385126,-16.471720,-16.235161,-13.770342,6
73665619,-11.281824,-12.083960,-0.802135,11.682892,-5.239844,-6.443048,-4.148626,-3.519440,-16.331625,-16.417885,-16.182089,-13.750410,6
73667616,-11.342382,-12.099934,-0.757551,11.721158,-5.292416,-6.428742,-4.118538,-3.458071,-16.280127,-16.367579,-16.131353,-13.734770,6
73669612,-11.371803,-12.112093,-0.740290,11.741948,-5.315757,-6.426191,-4.105377,-3.429747,-16.251612,-16.340208,-16.103935,-13.737869,6
73671609,-11.351776,-12.108326,-0.756550,11.730051,-5.297613,-6.432438,-4.112625,-3.441668,-16.258144,-16.347027,-16.111231,-13.761139,6
73673606,-11.285019,-12.090397,-0.805378,11.687708,-5.239820,-6.447887,-4.142952,-3.498602,-16.303778,-16.391659,-16.156006,-13.801289,6
73675603,-11.210585,-12.069178,-0.858593,11.639881,-5.175996,-6.463885,-4.182434,-3.571701,-16.362047,-16.448593,-16.213036,-13.849306,6
73677600,-11.161375,-12.056875,-0.895500,11.609125,-5.132937,-6.476188,-4.210615,-3.626299,-16.408014,-16.493559,-16.257572,-13.889647,6
73679596,-11.147213,-12.052727,-0.905514,11.599970,-5.120850,-6.479120,-4.221916,-3.649855,-16.428900,-16.514111,-16.277456,-13.918066,6
73681594,-11.169052,-12.058830,-0.889778,11.613941,-5.139637,-6.474304,-4.215813,-3.636360,-16.421413,-16.506815,-16.269875,-13.928127,6
73683591,-11.213779,-12.066650,-0.852871,11.640215,-5.180454,-6.459761,-4.184818,-3.585196,-16.382885,-16.469431,-16.233253,-13.883448,6
73685587,-11.285734,-12.088299,-0.802565,11.687016,-5.241585,-6.445432,-4.154491,-3.522444,-16.332722,-16.419363,-16.182947,-13.846540,6
73687583,-11.351299,-12.111998,-0.760698,11.731648,-5.295300,-6.436348,-4.128170,-3.464365,-16.281557,-16.368961,-16.133404,-13.834333,6
73689580,-11.378479,-12.123394,-0.744915,11.750937,-5.316782,-6.434155,-4.116249,-3.434610,-16.253328,-16.342211,-16.106224,-13.840771,6
73691577,-11.356449,-12.117481,-0.761032,11.736965,-5.297709,-6.439257,-4.122686,-3.446198,-16.260386,-16.348600,-16.111708,-13.860655,6
73693574,-11.292505,-12.102127,-0.809622,11.697316,-5.241442,-6.455874,-4.152775,-3.505754,-16.305256,-16.392899,-16.156387,-13.901663,6
73695572,-11.218596,-12.082100,-0.863504,11.650348,-5.177546,-6.472802,-4.186249,-3.575611,-16.362143,-16.448975,-16.212416,-13.947296,6
73697567,-11.163807,-12.063074,-0.899267,11.613441,-5.132270,-6.481171,-4.207516,-3.621292,-16.404295,-16.490078,-16.253662,-13.951492,6
73699564,-11.145210,-12.054157,-0.908947,11.599684,-5.118132,-6.481552,-4.223871,-3.646088,-16.426134,-16.511059,-16.275167,-13.931942,6
73701561,-11.169720,-12.062740,-0.893021,11.616230,-5.138350,-6.477880,-4.222107,-3.639364,-16.421413,-16.506243,-16.270351,-13.943863,6
73703558,-11.224365,-12.080097,-0.855732,11.652231,-5.184317,-6.467915,-4.198980,-3.596735,-16.388130,-16.473389,-16.237545,-13.941717,6
73705555,-11.295938,-12.102604,-0.806665,11.699271,-5.244637,-6.454635,-4.162264,-3.529692,-16.334152,-16.421175,-16.184425,-13.921499,6
73707552,-11.353779,-12.115002,-0.761223,11.734390,-5.296278,-6.438112,-4.127741,-3.464508,-16.279411,-16.367626,-16.132069,-13.891315,6
73709548,-11.380005,-12.119579,-0.739574,11.749792,-5.320215,-6.429577,-4.108381,-3.428555,-16.247702,-16.337729,-16.102409,-13.848686,6
73711545,-11.367893,-12.119389,-0.751495,11.743641,-5.308199,-6.435442,-4.119015,-3.443050,-16.255808,-16.345263,-16.109180,-13.859987,6
73713542,-11.311007,-12.106752,-0.795746,11.708879,-5.257630,-6.451249,-4.149771,-3.502512,-16.301680,-16.389275,-16.153479,-13.903379,6
73715539,-11.237526,-12.089634,-0.852108,11.663580,-5.192709,-6.470871,-4.188871,-3.577948,-16.359854,-16.446543,-16.210699,-13.952541,6
73717535,-11.184454,-12.075996,-0.891542,11.630225,-5.146456,-6.483769,-4.216337,-3.635216,-16.406298,-16.492176,-16.255665,-13.992643,6
73719532,-11.164284,-12.070608,-0.906324,11.617446,-5.128980,-6.488466,-4.230356,-3.661966,-16.428185,-16.513824,-16.277361,-14.022398,6
73721529,-11.183929,-12.074375,-0.890446,11.629152,-5.146742,-6.482410,-4.223204,-3.651333,-16.422415,-16.507959,-16.271448,-14.034700,6
73723526,-11.232471,-12.086296,-0.853825,11.659384,-5.189323,-6.470060,-4.198360,-3.606939,-16.389799,-16.475534,-16.239119,-14.032841,6
73725522,-11.299419,-12.104321,-0.804901,11.701870,-5.247259,-6.454611,-4.160404,-3.537846,-16.336727,-16.422892,-16.187191,-14.011240,6
73727519,-11.357594,-12.118196,-0.760603,11.737895,-5.298495,-6.439400,-4.128218,-3.474188,-16.281939,-16.370630,-16.134357,-13.991117,6
73729516,-11.386108,-12.122488,-0.736380,11.754298,-5.324864,-6.429434,-4.110289,-3.438282,-16.251373,-16.340780,-16.104889,-13.991070,6
73731513,-11.366558,-12.116146,-0.749588,11.741352,-5.308485,-6.432867,-4.115677,-3.449535,-16.255713,-16.345358,-16.109467,-14.010286,6
73733509,-11.306953,-12.101698,-0.794744,11.704326,-5.256104,-6.448221,-4.144955,-3.507328,-16.300154,-16.389084,-16.153193,-14.051151,6
73735506,-11.232471,-12.080097,-0.847626,11.656284,-5.192423,-6.463861,-4.180622,-3.580666,-16.358995,-16.446161,-16.210079,-14.099550,6
73737503,-11.177969,-12.065983,-0.888014,11.621976,-5.144978,-6.476998,-4.209423,-3.638268,-16.405630,-16.491699,-16.255665,-14.140415,6
73739500,-11.155415,-12.060547,-0.905132,11.607981,-5.125141,-6.482840,-4.223585,-3.665447,-16.427708,-16.513538,-16.277409,-14.167738,6
73741499,-11.174774,-12.067413,-0.892639,11.621094,-5.141068,-6.480026,-4.219198,-3.654528,-16.422367,-16.508102,-16.272116,-14.180136,6
73743495,-11.223841,-12.076426,-0.852585,11.650133,-5.185628,-6.464505,-4.187536,-3.602076,-16.386223,-16.472197,-16.237497,-14.156771,6
73745493,-11.281586,-12.082291,-0.800705,11.681938,-5.240440,-6.441498,-4.118490,-3.503704,-16.318512,-16.409826,-16.173649,-14.047003,6
73747490,-11.310720,-12.069654,-0.758934,11.690187,-5.275893,-6.414294,-4.024935,-3.381252,-16.226864,-16.338539,-16.098213,-13.762999,6
73749487,-11.328268,-12.064648,-0.736380,11.696458,-5.295944,-6.400514,-4.068661,-3.400755,-16.228914,-16.328239,-16.091299,-13.658381,6
73751483,-11.310959,-12.057638,-0.746679,11.684299,-5.282140,-6.402159,-4.086733,-3.420067,-16.243505,-16.335917,-16.100597,-13.637257,6
73753480,-11.257982,-12.049675,-0.791693,11.653829,-5.233145,-6.420684,-4.125547,-3.482866,-16.292858,-16.382313,-16.146708,-13.674736,6
73755477,-11.187124,-12.032127,-0.845003,11.609626,-5.171061,-6.438565,-4.166651,-3.558683,-16.353321,-16.441441,-16.205120,-13.725662,6
73757473,-11.136436,-12.020588,-0.884151,11.578512,-5.126143,-6.452370,-4.196835,-3.618908,-16.400862,-16.487837,-16.252089,-13.770390,6
73759470,-11.121941,-12.019205,-0.897264,11.570573,-5.112338,-6.458235,-4.210615,-3.648567,-16.424227,-16.510201,-16.274261,-13.802958,6
73761467,-11.143541,-12.027597,-0.884056,11.585569,-5.129743,-6.455827,-4.204798,-3.639412,-16.418934,-16.504669,-16.268301,-13.815594,6
73763465,-11.191368,-12.043190,-0.851822,11.617279,-5.169773,-6.447506,-4.184151,-3.598642,-16.386843,-16.473913,-16.236877,-13.814592,6
73765461,-11.258316,-12.062025,-0.803709,11.660171,-5.227304,-6.432867,-4.147625,-3.532267,-16.333961,-16.422129,-16.185713,-13.798571,6
73767457,-11.318922,-12.079573,-0.760651,11.699247,-5.279136,-6.420112,-4.116631,-3.468800,-16.280890,-16.369534,-16.133738,-13.779354,6
73769453,-11.351061,-12.090635,-0.739574,11.720848,-5.305743,-6.415105,-4.102468,-3.434849,-16.250896,-16.340017,-16.104269,-13.783026,6
73771450,-11.335707,-12.086105,-0.750399,11.710906,-5.292654,-6.418252,-4.106712,-3.441143,-16.253757,-16.343069,-16.107368,-13.801146,6
73773447,-11.270809,-12.064075,-0.793266,11.667442,-5.238771,-6.428671,-4.125643,-3.487921,-16.292143,-16.381598,-16.145325,-13.796473,6
73775444,-11.204052,-12.048721,-0.844669,11.626387,-5.179691,-6.446695,-4.170752,-3.567410,-16.351843,-16.440392,-16.203737,-13.805771,6
73777440,-11.162138,-12.043047,-0.880909,11.602592,-5.140615,-6.461978,-4.207134,-3.629398,-16.401720,-16.488457,-16.251612,-13.849449,6
73779437,-11.147785,-12.040949,-0.893164,11.594367,-5.127311,-6.467056,-4.222441,-3.656530,-16.425657,-16.511393,-16.274643,-13.880348,6
73781434,-11.169624,-12.049580,-0.879955,11.609602,-5.144835,-6.464767,-4.217768,-3.646898,-16.420889,-16.506386,-16.270256,-13.895130,6
73783432,-11.222410,-12.064648,-0.842237,11.643529,-5.190086,-6.453443,-4.190969,-3.602695,-16.388130,-16.474771,-16.237974,-13.890028,6
73785428,-11.291218,-12.082863,-0.791645,11.687040,-5.249786,-6.437254,-4.152107,-3.535080,-16.335058,-16.422939,-16.186094,-13.867998,6
73787424,-11.350679,-12.100077,-0.749397,11.725378,-5.300641,-6.424737,-4.123163,-3.470373,-16.282129,-16.370916,-16.134548,-13.848209,6
73789420,-11.379528,-12.107992,-0.728464,11.743760,-5.325532,-6.418228,-4.108334,-3.433418,-16.251516,-16.340542,-16.104412,-13.850307,6
73791417,-11.363220,-12.103367,-0.740147,11.733294,-5.311537,-6.421757,-4.115057,-3.440666,-16.253567,-16.343784,-16.107988,-13.870192,6
73793414,-11.302328,-12.087059,-0.784731,11.694694,-5.258799,-6.435895,-4.142094,-3.494120,-16.296339,-16.385174,-16.148901,-13.907862,6
73795410,-11.225939,-12.065554,-0.839615,11.645746,-5.193162,-6.452584,-4.179525,-3.566313,-16.354418,-16.442060,-16.205359,-13.955069,6
73797407,-11.170101,-12.048197,-0.878096,11.609149,-5.146003,-6.463146,-4.207897,-3.624725,-16.402102,-16.488266,-16.252565,-13.996792,6
73799404,-11.146832,-12.039471,-0.892639,11.593151,-5.127096,-6.466055,-4.221439,-3.652430,-16.425657,-16.511297,-16.275978,-14.025736,6
73801400,-11.163282,-12.045288,-0.882006,11.604285,-5.140638,-6.463647,-4.217529,-3.643227,-16.421127,-16.506958,-16.271257,-14.039087,6
73803397,-11.216497,-12.059736,-0.843239,11.638117,-5.186629,-6.451488,-4.194403,-3.601599,-16.389704,-16.475677,-16.239929,-14.037418,6
73805394,-11.287546,-12.078619,-0.791073,11.683083,-5.248237,-6.434846,-4.159212,-3.534269,-16.338253,-16.425085,-16.188383,-14.020920,6
73807391,-11.344624,-12.089443,-0.744820,11.717033,-5.299902,-6.417131,-4.117203,-3.459215,-16.278362,-16.367531,-16.132593,-13.981962,6
73809388,-11.372328,-12.095785,-0.723457,11.734056,-5.324435,-6.409621,-4.101038,-3.424549,-16.245079,-16.336393,-16.100883,-13.937855,6
73811384,-11.360693,-12.093639,-0.732946,11.727166,-5.313873,-6.413293,-4.104757,-3.431511,-16.247082,-16.338539,-16.103315,-13.931608,6
73813381,-11.300421,-12.079287,-0.778866,11.689854,-5.260777,-6.429076,-4.138041,-3.488255,-16.291904,-16.382074,-16.146469,-13.938570,6
73815378,-11.226034,-12.061214,-0.835180,11.643624,-5.195427,-6.448197,-4.179478,-3.566074,-16.352940,-16.440773,-16.204786,-13.984919,6
73817375,-11.176586,-12.047815,-0.871229,11.612201,-5.152678,-6.459522,-4.210329,-3.625488,-16.401052,-16.487408,-16.251421,-14.029121,6
73819371,-11.156988,-12.043190,-0.886202,11.600089,-5.135393,-6.464696,-4.225540,-3.654337,-16.425753,-16.511488,-16.275311,-14.059114,6
73821368,-11.173439,-12.050724,-0.877285,11.612082,-5.148077,-6.464005,-4.221058,-3.647232,-16.422844,-16.507912,-16.272640,-14.073324,6
73823365,-11.218166,-12.063837,-0.845671,11.641002,-5.186248,-6.454754,-4.200459,-3.607130,-16.391993,-16.478252,-16.242790,-14.072084,6
73825362,-11.283255,-12.082338,-0.799084,11.682796,-5.242085,-6.440711,-4.163933,-3.541660,-16.339064,-16.427231,-16.191483,-14.052105,6
73827358,-11.348867,-12.100315,-0.751448,11.724591,-5.298710,-6.425881,-4.132652,-3.477192,-16.285801,-16.374397,-16.138554,-14.032984,6
73829355,-11.385059,-12.112427,-0.727367,11.748743,-5.328846,-6.419897,-4.114485,-3.440094,-16.253090,-16.343212,-16.107416,-14.033318,6
73831352,-11.371994,-12.108850,-0.736856,11.740422,-5.317569,-6.422853,-4.116106,-3.446913,-16.254759,-16.344738,-16.109562,-14.049244,6
73833349,-11.307859,-12.090874,-0.783014,11.699367,-5.262423,-6.436944,-4.142094,-3.500319,-16.296339,-16.385174,-16.149950,-14.081144,6
73835346,-11.228418,-12.065315,-0.836897,11.646867,-5.195761,-6.451106,-4.176474,-3.569794,-16.352606,-16.440058,-16.204643,-14.085340,6
73837342,-11.177206,-12.053871,-0.876665,11.615539,-5.150270,-6.465268,-4.213047,-3.633261,-16.403341,-16.489935,-16.254616,-14.115667,6
73839339,-11.157942,-12.052393,-0.894451,11.605167,-5.131745,-6.473422,-4.227924,-3.662634,-16.428423,-16.514492,-16.278791,-14.145708,6
73841336,-11.174679,-12.062025,-0.887346,11.618352,-5.143666,-6.474686,-4.223728,-3.656292,-16.425753,-16.511297,-16.275978,-14.160967,6
73843333,-11.221075,-12.074518,-0.853443,11.647797,-5.183816,-6.463981,-4.203033,-3.616953,-16.395378,-16.480875,-16.245413,-14.158297,6
73845329,-11.286163,-12.091494,-0.805330,11.688828,-5.240417,-6.448412,-4.165983,-3.550339,-16.343403,-16.429853,-16.194105,-14.140654,6
73847329,-11.349964,-12.107182,-0.757217,11.728573,-5.296373,-6.432199,-4.129744,-3.482294,-16.287661,-16.375637,-16.139889,-14.117575,6
73849326,-11.359453,-12.095070,-0.735617,11.727262,-5.311918,-6.415343,-4.040432,-3.379154,-16.219711,-16.322803,-16.082811,-13.949680,6
73851322,-11.309719,-12.065649,-0.755930,11.687684,-5.276895,-6.410789,-4.045916,-3.383684,-16.215801,-16.324806,-16.085911,-13.708305,6
73853319,-11.250448,-12.049675,-0.799227,11.650062,-5.225611,-6.424451,-4.130936,-3.487110,-16.292524,-16.382504,-16.146612,-13.729191,6
73855316,-11.181784,-12.031889,-0.850105,11.606836,-5.165839,-6.440997,-4.171228,-3.562737,-16.353464,-16.440916,-16.205072,-13.780499,6
73857313,-11.129665,-12.021494,-0.891829,11.575580,-5.118918,-6.456661,-4.204082,-3.624916,-16.402912,-16.488743,-16.252995,-13.825607,6
73859309,-11.112690,-12.019014,-0.906324,11.565852,-5.103183,-6.462669,-4.220772,-3.656101,-16.427803,-16.512680,-16.276884,-13.857555,6
73861307,-11.136723,-12.028933,-0.892210,11.582828,-5.122256,-6.460571,-4.214716,-3.649235,-16.424513,-16.510582,-16.274071,-13.872480,6
73863305,-11.185217,-12.042952,-0.857735,11.614084,-5.163741,-6.450343,-4.192829,-3.610229,-16.394424,-16.480637,-16.244221,-13.871288,6
73865300,-11.254120,-12.063599,-0.809479,11.658859,-5.222321,-6.436539,-4.157162,-3.543615,-16.343212,-16.430330,-16.193485,-13.854933,6
73867296,-11.321259,-12.084532,-0.763273,11.702895,-5.278993,-6.423903,-4.124069,-3.478479,-16.288185,-16.377258,-16.140747,-13.834810,6
73869293,-11.359024,-12.097836,-0.738811,11.728430,-5.310106,-6.418324,-4.107428,-3.441000,-16.254997,-16.344357,-16.108942,-13.835049,6
73871290,-11.350584,-12.097692,-0.747108,11.724138,-5.301738,-6.422400,-4.111862,-3.446579,-16.255665,-16.345501,-16.109943,-13.853836,6
73873287,-11.294270,-12.084293,-0.790024,11.689281,-5.252123,-6.437159,-4.139519,-3.501606,-16.297388,-16.385603,-16.149950,-13.892841,6
73875284,-11.219692,-12.062740,-0.843048,11.641216,-5.188322,-6.452894,-4.177618,-3.576565,-16.355753,-16.443014,-16.206741,-13.942194,6
73877281,-11.164236,-12.045908,-0.881672,11.605072,-5.141282,-6.463790,-4.202652,-3.633356,-16.401768,-16.488600,-16.252279,-13.971519,6
73879278,-11.139011,-12.034845,-0.895834,11.586928,-5.121589,-6.465340,-4.211712,-3.659439,-16.424561,-16.510630,-16.274166,-13.946867,6
73881274,-11.158562,-12.041664,-0.883102,11.600113,-5.137730,-6.462383,-4.213524,-3.657532,-16.424847,-16.509867,-16.273928,-13.951159,6
73883272,-11.207199,-12.058592,-0.851393,11.632895,-5.177903,-6.454992,-4.193592,-3.617144,-16.394997,-16.480350,-16.244698,-13.950300,6
73885268,-11.273956,-12.079477,-0.805521,11.676717,-5.234218,-6.442499,-4.159069,-3.554249,-16.344738,-16.431475,-16.195583,-13.929939,6
73887265,-11.337805,-12.095404,-0.757599,11.716604,-5.290103,-6.426501,-4.126930,-3.490543,-16.291809,-16.378975,-16.143417,-13.915825,6
73889261,-11.374617,-12.104797,-0.730181,11.739707,-5.322218,-6.417489,-4.107332,-3.449583,-16.257334,-16.345358,-16.110468,-13.915348,6
73891259,-11.362886,-12.102175,-0.739288,11.732531,-5.311799,-6.420732,-4.107428,-3.450346,-16.255426,-16.344261,-16.108608,-13.928986,6
73893255,-11.299419,-12.084484,-0.785065,11.691952,-5.257177,-6.434774,-4.127693,-3.495598,-16.292477,-16.381073,-16.145372,-13.933611,6
73895252,-11.225414,-12.066174,-0.840759,11.645794,-5.192327,-6.453466,-4.172039,-3.575039,-16.352940,-16.440105,-16.204119,-13.954115,6
73897249,-11.173868,-12.054873,-0.881004,11.614370,-5.146432,-6.467938,-4.206228,-3.640032,-16.404200,-16.490173,-16.253138,-13.998938,6
73899246,-11.151505,-12.047100,-0.895596,11.599302,-5.127954,-6.471348,-4.221773,-3.670549,-16.429949,-16.515541,-16.278744,-14.028740,6
73901242,-11.167145,-12.052202,-0.885057,11.609674,-5.141044,-6.468630,-4.217911,-3.663540,-16.427279,-16.512489,-16.276073,-14.043665,6
73903240,-11.214685,-12.065220,-0.850534,11.639953,-5.182076,-6.457877,-4.197788,-3.625441,-16.397953,-16.482925,-16.246986,-14.044476,6
73905237,-11.282015,-12.085199,-0.803185,11.683607,-5.239415,-6.444192,-4.161453,-3.561497,-16.347218,-16.432810,-16.197062,-14.025831,6
73907233,-11.349106,-12.103176,-0.754070,11.726141,-5.297518,-6.428623,-4.129457,-3.496122,-16.292620,-16.380453,-16.144276,-14.010477,6
73909230,-11.384344,-12.112713,-0.728369,11.748528,-5.327988,-6.420541,-4.107761,-3.451824,-16.256666,-16.345978,-16.110611,-13.999557,6
73911227,-11.364365,-12.104797,-0.740433,11.734581,-5.311966,-6.422615,-4.106951,-3.450441,-16.252375,-16.343021,-16.108131,-13.974047,6
73913223,-11.308050,-12.091303,-0.783253,11.699677,-5.262399,-6.437278,-4.140186,-3.506613,-16.296816,-16.384029,-16.148567,-14.002275,6
73915220,-11.235189,-12.070513,-0.835323,11.652851,-5.199933,-6.452918,-4.177380,-3.580570,-16.355133,-16.441202,-16.205788,-14.049149,6
73917217,-11.181498,-12.057114,-0.875616,11.619306,-5.152941,-6.466365,-4.210091,-3.643084,-16.404915,-16.490555,-16.254473,-14.093828,6
73919216,-11.157465,-12.052345,-0.894880,11.604905,-5.131292,-6.473613,-4.226685,-3.674936,-16.431189,-16.516304,-16.280651,-14.128542,6
73921216,-11.171579,-12.057972,-0.886393,11.614776,-5.142593,-6.472182,-4.222822,-3.667498,-16.429472,-16.514587,-16.278839,-14.143515,6
73923217,-11.218262,-12.071562,-0.853300,11.644912,-5.182481,-6.462431,-4.200077,-3.625679,-16.399050,-16.484547,-16.249371,-14.139891,6
73925204,-11.282253,-12.090158,-0.807905,11.686206,-5.237174,-6.449032,-4.163694,-3.558254,-16.347456,-16.434240,-16.198397,-14.114952,6
73927201,-11.346912,-12.108040,-0.761127,11.727476,-5.292892,-6.434584,-4.132318,-3.493643,-16.294241,-16.381359,-16.145992,-14.098692,6
73929198,-11.386824,-12.119961,-0.733137,11.753392,-5.326843,-6.426549,-4.110146,-3.450918,-16.259146,-16.346645,-16.112041,-14.096069,6
73931195,-11.378384,-12.116385,-0.738001,11.747384,-5.320191,-6.427193,-4.111147,-3.451872,-16.257620,-16.345882,-16.110659,-14.110422,6
73933191,-11.322260,-12.101603,-0.779343,11.711931,-5.271459,-6.440473,-4.136276,-3.502321,-16.296101,-16.384697,-16.148615,-14.146852,6
73935188,-11.246157,-12.081385,-0.835228,11.663771,-5.205464,-6.458306,-4.174995,-3.576326,-16.354895,-16.441536,-16.205406,-14.193201,6
73937185,-11.189079,-12.067032,-0.877953,11.628056,-5.155563,-6.472492,-4.207420,-3.636503,-16.404295,-16.489935,-16.254377,-14.236546,6
73939183,-11.165667,-12.059689,-0.894022,11.612678,-5.135822,-6.476855,-4.220438,-3.666973,-16.430330,-16.515589,-16.279936,-14.264536,6
73941178,-11.173964,-12.057686,-0.883722,11.615825,-5.145121,-6.470704,-4.209232,-3.654337,-16.424561,-16.510582,-16.275501,-14.254236,6
73943176,-11.215067,-12.067270,-0.852203,11.641169,-5.181432,-6.459737,-4.191589,-3.616810,-16.395903,-16.482687,-16.246319,-14.215899,6
73945172,-11.286688,-12.092161,-0.805473,11.689425,-5.240607,-6.448817,-4.160309,-3.553104,-16.348076,-16.434860,-16.198874,-14.200020,6
73947168,-11.353588,-12.111855,-0.758266,11.732721,-5.297661,-6.435061,-4.124832,-3.483677,-16.291857,-16.379881,-16.144323,-14.177847,6
73949168,-11.383629,-12.120390,-0.736761,11.752009,-5.323434,-6.428576,-4.107523,-3.441191,-16.256475,-16.345835,-16.109657,-14.170647,6
73951165,-11.343813,-12.094545,-0.750732,11.719179,-5.296540,-6.422639,-4.041147,-3.380442,-16.218138,-16.320658,-16.082335,-14.026976,6
73953162,-11.257935,-12.060547,-0.802612,11.659241,-5.227661,-6.431580,-4.073763,-3.434896,-16.254711,-16.362095,-16.124058,-13.817167,6
73955158,-11.183786,-12.036180,-0.852394,11.609983,-5.165696,-6.444287,-4.162598,-3.550100,-16.345072,-16.434240,-16.197395,-13.824987,6
73957155,-11.135387,-12.027311,-0.891924,11.581349,-5.121732,-6.459618,-4.202557,-3.616905,-16.398716,-16.485023,-16.249228,-13.850212,6
73959152,-11.117554,-12.024736,-0.907183,11.571145,-5.105186,-6.465960,-4.221058,-3.650141,-16.426611,-16.512394,-16.276217,-13.881493,6
73961148,-11.134481,-12.033272,-0.898790,11.583877,-5.117846,-6.466031,-4.219723,-3.647423,-16.426516,-16.512203,-16.276312,-13.898373,6
73963146,-11.180496,-12.049580,-0.869083,11.615038,-5.155706,-6.459332,-4.199600,-3.610182,-16.398239,-16.484499,-16.248083,-13.897991,6
73965142,-11.246347,-12.070560,-0.824213,11.658454,-5.211067,-6.447387,-4.166508,-3.545809,-16.348982,-16.435719,-16.198683,-13.879347,6
73967138,-11.309958,-12.088060,-0.778103,11.699009,-5.265927,-6.433082,-4.133654,-3.479147,-16.292429,-16.381121,-16.145086,-13.858557,6
73969135,-11.344481,-12.091017,-0.746536,11.717749,-5.298972,-6.418777,-4.102755,-3.427935,-16.251516,-16.341972,-16.106653,-13.812733,6
73971132,-11.344862,-12.092543,-0.747681,11.718702,-5.298591,-6.420112,-4.107523,-3.429699,-16.251040,-16.340780,-16.104889,-13.806820,6
73973128,-11.297464,-12.083578,-0.786114,11.690521,-5.255675,-6.434846,-4.134941,-3.481913,-16.290665,-16.378880,-16.143847,-13.845158,6
73975125,-11.226606,-12.067509,-0.840902,11.647058,-5.192852,-6.454206,-4.172802,-3.557873,-16.349316,-16.436625,-16.200256,-13.893509,6
73977122,-11.172819,-12.055683,-0.882864,11.614251,-5.144978,-6.469274,-4.203987,-3.620291,-16.399717,-16.485834,-16.249228,-13.938284,6
73979118,-11.151505,-12.049961,-0.898457,11.600733,-5.126524,-6.474209,-4.220295,-3.652954,-16.427612,-16.513395,-16.277027,-13.970995,6
73981115,-11.166430,-12.054205,-0.887775,11.610317,-5.139327,-6.470990,-4.219580,-3.650045,-16.426659,-16.513109,-16.276884,-13.988066,6
73983113,-11.207724,-12.064648,-0.856924,11.636186,-5.175400,-6.460786,-4.200411,-3.613424,-16.399145,-16.485834,-16.249514,-13.988590,6
73985109,-11.270380,-12.083721,-0.813341,11.677051,-5.228519,-6.448531,-4.166174,-3.549862,-16.349840,-16.437292,-16.200733,-13.967848,6
73987105,-11.338568,-12.102938,-0.764370,11.720753,-5.287099,-6.433654,-4.136515,-3.485250,-16.295195,-16.382885,-16.146755,-13.952160,6
73989102,-11.379147,-12.114811,-0.735664,11.746979,-5.321741,-6.425238,-4.115295,-3.441668,-16.257477,-16.346169,-16.111469,-13.949442,6
73991098,-11.370230,-12.112856,-0.742626,11.741543,-5.313802,-6.427741,-4.115057,-3.440237,-16.253757,-16.342926,-16.108274,-13.964033,6
73993095,-11.312246,-12.096262,-0.784016,11.704254,-5.264115,-6.440139,-4.141998,-3.489780,-16.292381,-16.380405,-16.145277,-14.000702,6
73995092,-11.233282,-12.072611,-0.839329,11.652946,-5.196977,-6.455970,-4.179573,-3.563976,-16.349840,-16.437531,-16.201639,-14.047098,6
73997088,-11.178589,-12.056780,-0.878191,11.617684,-5.150199,-6.467485,-4.212332,-3.626347,-16.400051,-16.486502,-16.250515,-14.091539,6
73999085,-11.157990,-12.050581,-0.892591,11.604285,-5.132699,-6.471586,-4.228258,-3.658056,-16.426897,-16.512060,-16.277075,-14.121342,6
74001082,-11.172676,-12.054539,-0.881863,11.613607,-5.145407,-6.468201,-4.225731,-3.652763,-16.426516,-16.512060,-16.276169,-14.134550,6
74003079,-11.215830,-12.066555,-0.850725,11.641192,-5.182552,-6.458640,-4.202557,-3.611851,-16.397905,-16.483736,-16.248083,-14.132595,6
74005076,-11.280966,-12.083101,-0.802135,11.682034,-5.239415,-6.442618,-4.166079,-3.545570,-16.347361,-16.434479,-16.199350,-14.107895,6
74007073,-11.338615,-12.091589,-0.752974,11.715102,-5.292821,-6.422281,-4.123735,-3.470516,-16.286898,-16.377115,-16.141272,-14.035988,6
74009069,-11.379766,-12.108898,-0.729132,11.744332,-5.325317,-6.419015,-4.112101,-3.434277,-16.253424,-16.343069,-16.106892,-13.999462,6
74011066,-11.380863,-12.114859,-0.733995,11.747861,-5.323434,-6.424427,-4.116964,-3.436375,-16.251850,-16.341639,-16.104841,-14.017820,6
74013063,-11.329365,-12.102079,-0.772715,11.715722,-5.278325,-6.437397,-4.143620,-3.486633,-16.290474,-16.378260,-16.142797,-14.056063,6
74015060,-11.250401,-12.081289,-0.830889,11.665845,-5.209756,-6.456089,-4.181480,-3.562069,-16.349173,-16.435575,-16.200113,-14.103270,6
74017057,-11.193228,-12.067032,-0.873804,11.630130,-5.159712,-6.470418,-4.211950,-3.624296,-16.399479,-16.485119,-16.249371,-14.145756,6
74019053,-11.168194,-12.061548,-0.893354,11.614871,-5.137420,-6.477451,-4.229259,-3.658962,-16.427612,-16.513205,-16.276932,-14.177895,6
74021050,-11.180925,-12.066269,-0.885344,11.623597,-5.147791,-6.475806,-4.230309,-3.657866,-16.428041,-16.513300,-16.277361,-14.194536,6
74023048,-11.222219,-12.075567,-0.853348,11.648893,-5.184436,-6.464458,-4.209375,-3.620529,-16.399574,-16.485214,-16.249704,-14.193583,6
74025044,-11.283636,-12.091208,-0.807571,11.687422,-5.238032,-6.449389,-4.173803,-3.555250,-16.349316,-16.436958,-16.199780,-14.172220,6
74027041,-11.346769,-12.110615,-0.763845,11.728692,-5.291462,-6.437230,-4.143810,-3.489685,-16.296196,-16.383219,-16.147089,-14.155436,6
74029038,-11.380482,-12.122917,-0.742435,11.751699,-5.319023,-6.432676,-4.125214,-3.448296,-16.259861,-16.348028,-16.111898,-14.154100,6
74031035,-11.370373,-12.116957,-0.746584,11.743665,-5.311894,-6.431770,-4.121971,-3.443003,-16.253138,-16.342068,-16.106272,-14.160013,6
74033031,-11.309052,-12.095356,-0.786304,11.702204,-5.261374,-6.440830,-4.141045,-3.484058,-16.286707,-16.375732,-16.140079,-14.152384,6
74035028,-11.233282,-12.075090,-0.841808,11.654186,-5.195737,-6.458449,-4.181051,-3.560305,-16.346598,-16.433573,-16.198015,-14.185429,6
74037025,-11.176395,-12.060070,-0.883675,11.618233,-5.146360,-6.471872,-4.210663,-3.621864,-16.397667,-16.483593,-16.247797,-14.227438,6
74039022,-11.151028,-12.053299,-0.902271,11.602163,-5.124378,-6.477785,-4.226589,-3.655052,-16.425657,-16.510773,-16.275454,-14.255953,6
74041019,-11.163425,-12.057161,-0.893736,11.610293,-5.134845,-6.475449,-4.221821,-3.650618,-16.426086,-16.511250,-16.275597,-14.269447,6
74043016,-11.209011,-12.068701,-0.859690,11.638856,-5.174661,-6.464195,-4.200745,-3.611994,-16.398382,-16.484213,-16.248417,-14.267635,6
74045013,-11.274385,-12.086582,-0.812197,11.680484,-5.231094,-6.449389,-4.164839,-3.548050,-16.348696,-16.435719,-16.200018,-14.244175,6
74047009,-11.340284,-12.104702,-0.764418,11.722493,-5.287933,-6.434560,-4.132700,-3.484535,-16.294765,-16.382408,-16.147327,-14.227104,6
74049006,-11.378717,-12.117052,-0.738335,11.747885,-5.320191,-6.427693,-4.110718,-3.441191,-16.256857,-16.346312,-16.111088,-14.223671,6
74051005,-11.376095,-12.115812,-0.739717,11.745954,-5.318189,-6.427765,-4.108763,-3.438854,-16.251659,-16.341162,-16.105747,-14.234591,6
74053004,-11.313009,-12.088013,-0.775003,11.700511,-5.269003,-6.431508,-4.104614,-3.457165,-16.274643,-16.365480,-16.128922,-14.196968,6
74055000,-11.201763,-12.039280,-0.837517,11.620522,-5.182123,-6.438398,-4.076099,-3.467989,-16.301012,-16.401815,-16.160059,-13.964939,6
74056996,-11.135864,-12.024546,-0.888681,11.580205,-5.123591,-6.456614,-4.177284,-3.591919,-16.383505,-16.473866,-16.236734,-13.913059,6
74058993,-11.118507,-12.023735,-0.905228,11.571121,-5.106640,-6.464481,-4.215527,-3.644037,-16.423225,-16.508627,-16.272688,-13.955641,6
74060990,-11.133051,-12.029552,-0.896502,11.581302,-5.118275,-6.463027,-4.215240,-3.643513,-16.424894,-16.510868,-16.274643,-13.973570,6
74062988,-11.177111,-12.042332,-0.865221,11.609721,-5.155945,-6.453776,-4.193878,-3.606701,-16.397667,-16.484308,-16.248178,-13.974142,6
74064984,-11.244583,-12.062740,-0.818157,11.653662,-5.213213,-6.440449,-4.156923,-3.541803,-16.348505,-16.435575,-16.199780,-13.955021,6
74066980,-11.316824,-12.083769,-0.766945,11.700296,-5.274940,-6.425357,-4.125643,-3.477955,-16.294050,-16.382074,-16.146660,-13.940191,6
74068977,-11.361170,-12.096834,-0.735664,11.729002,-5.312753,-6.416249,-4.103947,-3.433132,-16.255808,-16.345596,-16.109467,-13.937235,6
74070973,-11.352301,-12.089777,-0.737476,11.721039,-5.307412,-6.413627,-4.094887,-3.423405,-16.246796,-16.336870,-16.101456,-13.922262,6
74072970,-11.298370,-12.075710,-0.777340,11.687040,-5.260515,-6.426525,-4.124260,-3.474522,-16.284323,-16.373110,-16.137314,-13.927412,6
74074967,-11.225033,-12.057495,-0.832462,11.641264,-5.196285,-6.444979,-4.165268,-3.549290,-16.343117,-16.430521,-16.194439,-13.973999,6
74076964,-11.174440,-12.047195,-0.872755,11.610818,-5.150843,-6.459975,-4.199791,-3.612471,-16.394329,-16.481018,-16.244650,-14.018011,6
74078960,-11.154747,-12.044191,-0.889444,11.599469,-5.132651,-6.466818,-4.219818,-3.649902,-16.424274,-16.510010,-16.274071,-14.050817,6
74080957,-11.170292,-12.051201,-0.880909,11.610746,-5.144691,-6.466055,-4.218483,-3.651714,-16.426992,-16.512012,-16.276312,-14.068270,6
74082955,-11.214304,-12.065125,-0.850821,11.639714,-5.181742,-6.457973,-4.201031,-3.616810,-16.400862,-16.486406,-16.250944,-14.070559,6
74084951,-11.278963,-12.082386,-0.803423,11.680675,-5.237770,-6.442904,-4.166985,-3.552485,-16.351414,-16.438484,-16.201925,-14.052010,6
74086947,-11.343098,-12.101269,-0.758171,11.722183,-5.292463,-6.429720,-4.134607,-3.486729,-16.295338,-16.383982,-16.147804,-14.029360,6
74088944,-11.383343,-12.113380,-0.730038,11.748362,-5.326653,-6.421709,-4.112673,-3.442812,-16.257620,-16.346216,-16.111040,-14.026737,6
74090941,-11.379766,-12.111378,-0.731611,11.745572,-5.324078,-6.421494,-4.109430,-3.436852,-16.250277,-16.339970,-16.105032,-14.039469,6
74092938,-11.327457,-12.095737,-0.768280,11.711597,-5.279589,-6.432009,-4.133081,-3.481960,-16.285467,-16.374874,-16.139078,-14.074230,6
74094935,-11.250162,-12.076092,-0.825930,11.663127,-5.212116,-6.451011,-4.172039,-3.557682,-16.343880,-16.431665,-16.195631,-14.124203,6
74096932,-11.187410,-12.061691,-0.874281,11.624551,-5.156565,-6.467986,-4.207468,-3.623533,-16.395760,-16.482067,-16.246128,-14.170647,6
74098929,-11.154604,-12.052965,-0.898361,11.603785,-5.128121,-6.475663,-4.227066,-3.661013,-16.425943,-16.510963,-16.275454,-14.201689,6
74100925,-11.161709,-12.056684,-0.894976,11.609197,-5.133367,-6.475830,-4.228973,-3.662205,-16.428900,-16.513109,-16.277885,-14.218760,6
74102922,-11.203003,-12.067986,-0.864983,11.635494,-5.169010,-6.466484,-4.208612,-3.626060,-16.402292,-16.487455,-16.252184,-14.218378,6
74104919,-11.265850,-12.085581,-0.819731,11.675715,-5.223060,-6.452656,-4.171705,-3.563976,-16.353989,-16.440010,-16.204548,-14.196634,6
74106917,-11.331844,-12.104368,-0.772524,11.718106,-5.279660,-6.438446,-4.139137,-3.498268,-16.298199,-16.386223,-16.149902,-14.176464,6
74108913,-11.374044,-12.116814,-0.742769,11.745429,-5.315638,-6.429791,-4.113626,-3.451443,-16.258049,-16.347170,-16.111326,-14.165258,6
74110910,-11.364651,-12.108660,-0.744009,11.736655,-5.310321,-6.426334,-4.104662,-3.439140,-16.246986,-16.337442,-16.101694,-14.135408,6
74112907,-11.308670,-12.088633,-0.779963,11.698651,-5.264354,-6.434298,-4.129744,-3.483915,-16.281557,-16.371393,-16.134882,-14.120626,6
74114903,-11.235428,-12.071419,-0.835991,11.653423,-5.199718,-6.453705,-4.176092,-3.562355,-16.342688,-16.429901,-16.194391,-14.154673,6
74116900,-11.177635,-12.057257,-0.879622,11.617446,-5.149007,-6.468439,-4.208660,-3.624725,-16.394281,-16.480637,-16.245174,-14.197922,6
74118897,-11.149502,-12.050295,-0.900793,11.599898,-5.124354,-6.475544,-4.226303,-3.662395,-16.424274,-16.510057,-16.274881,-14.231777,6
74120894,-11.158943,-12.053919,-0.894976,11.606431,-5.131984,-6.474447,-4.225683,-3.662872,-16.427231,-16.512537,-16.277027,-14.248228,6
74122892,-11.201096,-12.064600,-0.863504,11.632848,-5.168796,-6.464052,-4.204130,-3.625870,-16.402006,-16.486835,-16.251659,-14.248753,6
74124888,-11.263943,-12.082958,-0.819016,11.673450,-5.222464,-6.450987,-4.168606,-3.561831,-16.352749,-16.439772,-16.204166,-14.228916,6
74126886,-11.330271,-12.103176,-0.772905,11.716723,-5.278683,-6.438041,-4.137564,-3.495359,-16.296959,-16.385746,-16.149616,-14.210081,6
74128881,-11.363649,-12.104797,-0.741148,11.734223,-5.311251,-6.422973,-4.101229,-3.435516,-16.250849,-16.342258,-16.105890,-14.149380,6
74130878,-11.362410,-12.104130,-0.741720,11.733270,-5.310345,-6.422925,-4.104471,-3.433800,-16.245413,-16.335821,-16.099882,-14.099121,6
74132875,-11.316586,-12.097263,-0.780678,11.706924,-5.267954,-6.438971,-4.133558,-3.483772,-16.281796,-16.370869,-16.135073,-14.132261,6
74134872,-11.244822,-12.081766,-0.836945,11.663294,-5.203938,-6.459355,-4.172421,-3.560829,-16.341019,-16.427469,-16.192532,-14.181471,6
74136869,-11.185932,-12.067461,-0.881529,11.626697,-5.152202,-6.474495,-4.203892,-3.626919,-16.392899,-16.478729,-16.243410,-14.225769,6
74138865,-11.160326,-12.058926,-0.898600,11.609626,-5.130863,-6.478763,-4.223251,-3.662348,-16.422844,-16.508579,-16.273260,-14.258814,6
74140862,-11.173773,-12.061739,-0.887966,11.617756,-5.142903,-6.474853,-4.221630,-3.659201,-16.425943,-16.511488,-16.275501,-14.274359,6
74142860,-11.215687,-12.071800,-0.856113,11.643744,-5.179787,-6.463957,-4.200888,-3.622198,-16.400290,-16.486359,-16.250229,-14.273834,6
74144856,-11.276388,-12.086964,-0.810575,11.681676,-5.232906,-6.448770,-4.165268,-3.559160,-16.351795,-16.440105,-16.203260,-14.254427,6
74146853,-11.343002,-12.105751,-0.762749,11.724377,-5.290127,-6.434250,-4.134846,-3.493977,-16.297150,-16.385841,-16.149569,-14.238024,6
74148850,-11.388350,-12.118626,-0.730276,11.753488,-5.329037,-6.424451,-4.109955,-3.446770,-16.257954,-16.346836,-16.110992,-14.232445,6
74150846,-11.381721,-12.112474,-0.730753,11.747098,-5.325484,-6.421614,-4.098654,-3.430653,-16.244221,-16.335583,-16.099644,-14.212465,6
74152843,-11.326933,-12.098265,-0.771332,11.712599,-5.277801,-6.434798,-4.125643,-3.476858,-16.278934,-16.368389,-16.132879,-14.213419,6
74154844,-11.245775,-12.074947,-0.829172,11.660361,-5.208302,-6.452060,-4.152870,-3.540373,-16.333008,-16.421175,-16.184855,-14.240217,6
74156840,-11.152554,-12.032890,-0.880337,11.592722,-5.136108,-6.456614,-4.111576,-3.534842,-16.350651,-16.448212,-16.207743,-14.054728,6
74158837,-11.105633,-12.015533,-0.909901,11.560583,-5.097866,-6.462717,-4.181480,-3.615665,-16.403055,-16.495371,-16.257811,-13.922787,6
74160834,-11.120415,-12.023449,-0.903034,11.571932,-5.108690,-6.463242,-4.215002,-3.647423,-16.422844,-16.508770,-16.272736,-13.949680,6
74162832,-11.162710,-12.037468,-0.874758,11.600089,-5.143976,-6.456113,-4.196596,-3.614140,-16.398048,-16.484690,-16.248322,-13.952446,6
74164828,-11.230898,-12.058926,-0.828028,11.644912,-5.201435,-6.443477,-4.162836,-3.550243,-16.349840,-16.437864,-16.202068,-13.933134,6
74166824,-11.303520,-12.083912,-0.780392,11.693716,-5.261564,-6.432152,-4.132938,-3.486490,-16.296244,-16.385031,-16.148901,-13.915777,6
74168821,-11.354589,-12.105799,-0.751209,11.730194,-5.301690,-6.428504,-4.112434,-3.442860,-16.257572,-16.346502,-16.111469,-13.914299,6
74170818,-11.360312,-12.109613,-0.749302,11.734962,-5.305505,-6.429458,-4.108000,-3.436995,-16.248608,-16.338634,-16.103697,-13.926125,6
74172815,-11.309528,-12.091398,-0.781870,11.700463,-5.263829,-6.436634,-4.123449,-3.471756,-16.278553,-16.368294,-16.131878,-13.931084,6
74174811,-11.233377,-12.070036,-0.836658,11.651707,-5.198359,-6.453347,-4.165220,-3.547144,-16.336870,-16.425419,-16.189003,-13.943195,6
74176808,-11.175251,-12.054777,-0.879526,11.615014,-5.147862,-6.467152,-4.201555,-3.614998,-16.390419,-16.477442,-16.241407,-13.986063,6
74178805,-11.147928,-12.047100,-0.899172,11.597514,-5.124378,-6.473136,-4.219866,-3.652763,-16.421843,-16.508389,-16.272163,-14.019966,6
74180802,-11.159945,-12.053871,-0.893927,11.606908,-5.133009,-6.473899,-4.220533,-3.656101,-16.427088,-16.512251,-16.275835,-14.039803,6
74182800,-11.203146,-12.066841,-0.863695,11.634994,-5.169725,-6.465268,-4.199934,-3.620911,-16.401386,-16.487551,-16.251564,-14.040470,6
74184798,-11.268520,-12.086010,-0.817490,11.677265,-5.225515,-6.451750,-4.165030,-3.556299,-16.353178,-16.440105,-16.204548,-14.022493,6
74186792,-11.335850,-12.100744,-0.764894,11.718297,-5.285478,-6.432819,-4.127121,-3.483152,-16.294336,-16.383362,-16.147709,-13.982964,6
74188789,-11.374760,-12.108994,-0.734234,11.741877,-5.320263,-6.421614,-4.102564,-3.433323,-16.253042,-16.343594,-16.108179,-13.938856,6
74190786,-11.376572,-12.111235,-0.734663,11.743903,-5.320954,-6.422949,-4.102087,-3.428888,-16.246128,-16.336060,-16.100836,-13.947678,6
74192783,-11.330891,-12.100554,-0.769663,11.715722,-5.280614,-6.435108,-4.127598,-3.472996,-16.279554,-16.368914,-16.133356,-13.981915,6
74194780,-11.255598,-12.077904,-0.822306,11.666751,-5.216646,-6.450105,-4.164267,-3.545237,-16.336966,-16.423941,-16.188955,-14.028597,6
74196776,-11.191273,-12.061214,-0.869942,11.626244,-5.160666,-6.465578,-4.196835,-3.611994,-16.389751,-16.476011,-16.240406,-14.073038,6
74198773,-11.157131,-12.050247,-0.893116,11.603689,-5.132008,-6.471682,-4.215002,-3.647804,-16.420460,-16.506958,-16.271067,-14.106321,6
74200770,-11.166573,-12.054300,-0.887728,11.610436,-5.139422,-6.471014,-4.217005,-3.648949,-16.424990,-16.511726,-16.275597,-14.124918,6
74202767,-11.208391,-12.067366,-0.858974,11.637878,-5.174708,-6.463170,-4.201269,-3.615952,-16.401339,-16.488361,-16.251945,-14.127588,6
74204763,-11.269665,-12.085772,-0.816107,11.677718,-5.226779,-6.450939,-4.169846,-3.554058,-16.354132,-16.441202,-16.205692,-14.112997,6
74206760,-11.336470,-12.103081,-0.766611,11.719775,-5.284929,-6.434846,-4.136705,-3.484201,-16.298008,-16.386509,-16.151476,-14.091921,6
74208757,-11.381721,-12.115431,-0.733709,11.748576,-5.324006,-6.424570,-4.112196,-3.436470,-16.257620,-16.348171,-16.112661,-14.085293,6
74210754,-11.381531,-12.114000,-0.732470,11.747766,-5.324531,-6.423235,-4.106569,-3.429127,-16.248178,-16.339016,-16.102648,-14.096117,6
74212751,-11.330080,-12.100124,-0.770044,11.715102,-5.280018,-6.435084,-4.127359,-3.471231,-16.279745,-16.370487,-16.133881,-14.130878,6
74214748,-11.255312,-12.079000,-0.823689,11.667156,-5.215812,-6.451344,-4.163408,-3.542471,-16.335917,-16.424704,-16.188812,-14.177179,6
74216745,-11.188126,-12.054205,-0.866079,11.621165,-5.161023,-6.460142,-4.189444,-3.598642,-16.385174,-16.471577,-16.235876,-14.182043,6
74218741,-11.157370,-12.047672,-0.890303,11.602521,-5.133533,-6.468987,-4.216290,-3.642893,-16.418076,-16.504383,-16.269112,-14.173412,6
74220738,-11.166811,-12.053251,-0.886440,11.610031,-5.140185,-6.469846,-4.221869,-3.648853,-16.425323,-16.511440,-16.275644,-14.192295,6
74222736,-11.205387,-12.063360,-0.857973,11.634374,-5.173707,-6.460667,-4.205418,-3.615236,-16.401386,-16.487694,-16.252136,-14.193392,6
74224732,-11.266994,-12.081671,-0.814676,11.674333,-5.226159,-6.448174,-4.175282,-3.555202,-16.354847,-16.443014,-16.206694,-14.181185,6
74226729,-11.333513,-12.101698,-0.768185,11.717606,-5.282664,-6.434941,-4.138184,-3.485155,-16.298389,-16.387510,-16.150999,-14.159155,6
74228726,-11.374283,-12.113619,-0.739336,11.743951,-5.317473,-6.426477,-4.114723,-3.436422,-16.257381,-16.347647,-16.111660,-14.146614,6
74230723,-11.375999,-12.116528,-0.740528,11.746264,-5.317736,-6.428528,-4.113054,-3.429747,-16.247606,-16.338158,-16.102505,-14.157629,6
74232720,-11.329699,-12.103367,-0.773668,11.716533,-5.278015,-6.438518,-4.136229,-3.471470,-16.279411,-16.368246,-16.133165,-14.191818,6
74234716,-11.251497,-12.076902,-0.825405,11.664200,-5.213046,-6.451154,-4.166412,-3.536510,-16.332483,-16.420650,-16.185093,-14.216566,6
74236713,-11.189651,-12.059546,-0.869894,11.624599,-5.159879,-6.464720,-4.200506,-3.600883,-16.385603,-16.472626,-16.236496,-14.218569,6
74238710,-11.162376,-12.054539,-0.892162,11.608458,-5.135107,-6.473351,-4.224586,-3.645229,-16.420650,-16.506624,-16.270590,-14.248610,6
74240707,-11.170959,-12.058306,-0.887346,11.614633,-5.141807,-6.472826,-4.229403,-3.650141,-16.426754,-16.512442,-16.276836,-14.269590,6
74242705,-11.205482,-12.068367,-0.862885,11.636925,-5.171299,-6.465626,-4.214144,-3.619146,-16.404247,-16.490173,-16.254711,-14.272928,6
74244701,-11.266327,-12.083483,-0.817156,11.674905,-5.224586,-6.450319,-4.179382,-3.556728,-16.356850,-16.444492,-16.208649,-14.254713,6
74246697,-11.336851,-12.103748,-0.766897,11.720300,-5.284977,-6.435323,-4.143858,-3.486729,-16.300058,-16.388750,-16.153049,-14.229488,6
74248694,-11.383104,-12.114096,-0.730991,11.748600,-5.326056,-6.422544,-4.114485,-3.431892,-16.254807,-16.345358,-16.109991,-14.193392,6
74250691,-11.386442,-12.117243,-0.730801,11.751842,-5.327821,-6.424022,-4.114676,-3.427124,-16.245556,-16.336250,-16.100979,-14.178514,6
74252688,-11.338854,-12.107992,-0.769138,11.723423,-5.284858,-6.438565,-4.139853,-3.469038,-16.278362,-16.368246,-16.132212,-14.210796,6
74254685,-11.262274,-12.090635,-0.828362,11.676455,-5.216956,-6.459498,-4.179430,-3.542328,-16.335917,-16.424417,-16.187811,-14.260101,6
74256686,-11.194897,-12.071753,-0.876856,11.633325,-5.159020,-6.474304,-4.205465,-3.601074,-16.386557,-16.472483,-16.236401,-14.291191,6
74258682,-11.134100,-12.037134,-0.903034,11.585617,-5.115533,-6.470084,-4.147243,-3.570080,-16.384888,-16.478252,-16.239977,-14.099884,6
74260679,-11.122513,-12.027740,-0.905228,11.575127,-5.108643,-6.466484,-4.193068,-3.612709,-16.408730,-16.500187,-16.263342,-13.940859,6
74262677,-11.164379,-12.039518,-0.875139,11.601949,-5.144620,-6.457329,-4.213190,-3.612804,-16.402340,-16.488743,-16.253138,-13.948822,6
74264673,-11.229706,-12.059402,-0.829697,11.644554,-5.200005,-6.444550,-4.180431,-3.552055,-16.355467,-16.443443,-16.208458,-13.930607,6
74266669,-11.302805,-12.079048,-0.776243,11.690927,-5.263281,-6.427646,-4.148674,-3.485107,-16.300774,-16.390085,-16.154051,-13.909054,6
74268666,-11.352158,-12.094212,-0.742054,11.723185,-5.305052,-6.418133,-4.123306,-3.436089,-16.258907,-16.349840,-16.113138,-13.903189,6
74270663,-11.356735,-12.096310,-0.739574,11.726522,-5.308580,-6.417942,-4.117823,-3.426600,-16.247511,-16.339397,-16.102362,-13.915730,6
74272660,-11.310530,-12.084246,-0.773716,11.697388,-5.268407,-6.428981,-4.136753,-3.468990,-16.278505,-16.368771,-16.131783,-13.947868,6
74274657,-11.234760,-12.064791,-0.830030,11.649776,-5.202365,-6.447411,-4.175234,-3.543758,-16.335917,-16.424465,-16.187716,-13.996887,6
74276653,-11.172628,-12.049103,-0.876474,11.610866,-5.148077,-6.462789,-4.209471,-3.608561,-16.389751,-16.477108,-16.240692,-14.043379,6
74278650,-11.145496,-12.042522,-0.897026,11.594009,-5.124235,-6.469774,-4.229832,-3.646088,-16.422987,-16.509485,-16.273260,-14.078236,6
74280647,-11.153412,-12.045860,-0.892448,11.599636,-5.130482,-6.469154,-4.225636,-3.644943,-16.426277,-16.512966,-16.277170,-14.086342,6
74282645,-11.185741,-12.053204,-0.867462,11.619473,-5.159140,-6.460333,-4.206038,-3.609848,-16.401529,-16.488600,-16.252995,-14.047909,6
74284641,-11.251354,-12.075853,-0.824499,11.663604,-5.213428,-6.450176,-4.180527,-3.554773,-16.357517,-16.445923,-16.210079,-14.022017,6
74286638,-11.319637,-12.094784,-0.775146,11.707211,-5.272245,-6.434965,-4.146957,-3.486490,-16.303158,-16.391945,-16.156292,-14.000177,6
74288634,-11.364746,-12.109947,-0.745201,11.737347,-5.309772,-6.427574,-4.124641,-3.436184,-16.260862,-16.350985,-16.115284,-13.995981,6
74290632,-11.371899,-12.115097,-0.743198,11.743498,-5.314350,-6.429148,-4.121637,-3.426981,-16.249609,-16.340590,-16.104889,-14.008951,6
74292628,-11.323500,-12.097692,-0.774193,11.710596,-5.274653,-6.435943,-4.134750,-3.460121,-16.276932,-16.367054,-16.131353,-14.019299,6
74294625,-11.241627,-12.072849,-0.831223,11.657238,-5.205202,-6.452036,-4.172945,-3.533459,-16.333389,-16.422367,-16.185999,-14.029360,6
74296622,-11.180019,-12.059975,-0.879955,11.619997,-5.150032,-6.469965,-4.212999,-3.603315,-16.389656,-16.476202,-16.239929,-14.074850,6
74298619,-11.146832,-12.054873,-0.908041,11.600852,-5.119395,-6.481457,-4.235029,-3.644180,-16.424227,-16.509485,-16.273165,-14.113998,6
74300616,-11.153555,-12.060738,-0.907183,11.607146,-5.123186,-6.483960,-4.234886,-3.648710,-16.430330,-16.516066,-16.279745,-14.134169,6
74302613,-11.193752,-12.070465,-0.876713,11.632109,-5.158520,-6.473589,-4.216003,-3.617382,-16.407728,-16.493416,-16.257906,-14.135885,6
74304609,-11.255121,-12.086773,-0.831652,11.670947,-5.211735,-6.459212,-4.181099,-3.554773,-16.361570,-16.448355,-16.212320,-14.116812,6
74306606,-11.321449,-12.103033,-0.781584,11.712241,-5.269933,-6.442308,-4.144526,-3.486109,-16.305733,-16.393900,-16.157436,-14.090538,6
74308603,-11.361694,-12.109280,-0.747585,11.735487,-5.307055,-6.428432,-4.114103,-3.430891,-16.260290,-16.350412,-16.114092,-14.046526,6
74310599,-11.365461,-12.112617,-0.747156,11.739039,-5.309153,-6.429887,-4.113054,-3.422928,-16.249990,-16.339827,-16.104507,-14.047432,6
74312596,-11.328745,-12.106323,-0.777578,11.717534,-5.275583,-6.441951,-4.134226,-3.461647,-16.279793,-16.368055,-16.133118,-14.078522,6
74314593,-11.256552,-12.088537,-0.831985,11.672544,-5.212283,-6.460261,-4.172754,-3.533316,-16.335106,-16.423035,-16.187334,-14.124680,6
74316590,-11.191177,-12.071085,-0.879908,11.631131,-5.155635,-6.475496,-4.207325,-3.602457,-16.389656,-16.476107,-16.239786,-14.170599,6
74318586,-11.156416,-12.061930,-0.905514,11.609173,-5.125451,-6.483722,-4.228687,-3.645658,-16.424656,-16.509724,-16.274166,-14.207411,6
74320583,-11.158037,-12.064743,-0.906706,11.611390,-5.125666,-6.485724,-4.231501,-3.652620,-16.431856,-16.517448,-16.281319,-14.227152,6
74322581,-11.193705,-12.076092,-0.882387,11.634898,-5.155659,-6.479239,-4.216242,-3.625011,-16.410351,-16.496277,-16.260338,-14.231777,6
74324577,-11.255741,-12.093830,-0.838089,11.674786,-5.208826,-6.465960,-4.182673,-3.564787,-16.365099,-16.451597,-16.215801,-14.213800,6
74326573,-11.321354,-12.110186,-0.788832,11.715770,-5.266261,-6.449509,-4.150391,-3.497314,-16.309977,-16.396952,-16.161394,-14.194441,6
74328570,-11.367035,-12.120867,-0.753832,11.743951,-5.306602,-6.437349,-4.126310,-3.447580,-16.266823,-16.355324,-16.120005,-14.189148,6
74330567,-11.374283,-12.122583,-0.748301,11.748433,-5.312991,-6.435442,-4.120064,-3.434515,-16.252804,-16.342688,-16.107035,-14.196062,6
74332564,-11.333895,-12.114000,-0.780106,11.723948,-5.276895,-6.447053,-4.139805,-3.473377,-16.281462,-16.370201,-16.134834,-14.227867,6
74334561,-11.260414,-12.092924,-0.832510,11.676669,-5.213952,-6.462717,-4.175758,-3.543043,-16.336918,-16.424513,-16.189337,-14.273882,6
74336557,-11.198568,-12.079096,-0.880527,11.638832,-5.159020,-6.479812,-4.212570,-3.610229,-16.392279,-16.478109,-16.243029,-14.321375,6
74338554,-11.165524,-12.072802,-0.907278,11.619163,-5.129123,-6.490040,-4.234982,-3.654289,-16.427374,-16.512775,-16.277409,-14.356565,6
74340551,-11.168432,-12.072849,-0.904417,11.620641,-5.132008,-6.488633,-4.236412,-3.658485,-16.434622,-16.520023,-16.284370,-14.376020,6
74342547,-11.203671,-12.082148,-0.878477,11.642909,-5.162597,-6.480312,-4.220438,-3.628445,-16.413498,-16.499138,-16.263866,-14.378071,6
74344544,-11.263943,-12.098408,-0.834465,11.681175,-5.214739,-6.466436,-4.187346,-3.569317,-16.367388,-16.454554,-16.218948,-14.362431,6
74346541,-11.330652,-12.115097,-0.784445,11.722875,-5.273104,-6.449771,-4.149055,-3.499031,-16.309881,-16.397476,-16.162920,-14.334583,6
74348538,-11.375284,-12.125301,-0.750017,11.750293,-5.312634,-6.437659,-4.122448,-3.445768,-16.264534,-16.354561,-16.119480,-14.284801,6
74350535,-11.382627,-12.130928,-0.748301,11.756778,-5.317163,-6.439614,-4.122925,-3.439283,-16.253757,-16.343737,-16.107988,-14.282036,6
74352532,-11.339474,-12.119865,-0.780392,11.729670,-5.279541,-6.450129,-4.141617,-3.476238,-16.282034,-16.371298,-16.135645,-14.311886,6
74354528,-11.264992,-12.097931,-0.832939,11.681461,-5.216026,-6.465435,-4.178238,-3.546190,-16.338301,-16.425467,-16.189671,-14.356279,6
74356525,-11.202049,-12.081242,-0.879192,11.641645,-5.161428,-6.480217,-4.211617,-3.613520,-16.391468,-16.478634,-16.242552,-14.400864,6
74358524,-11.163807,-12.070513,-0.906706,11.617160,-5.128551,-6.488609,-4.233551,-3.657055,-16.426039,-16.511488,-16.276550,-14.433432,6
74360522,-11.154366,-12.056589,-0.902224,11.605477,-5.126071,-6.479406,-4.193211,-3.625250,-16.417837,-16.506052,-16.267729,-14.370203,6
74362520,-11.155510,-12.037945,-0.882435,11.596727,-5.136538,-6.460190,-4.133415,-3.553581,-16.375589,-16.472864,-16.232061,-14.101696,6
74364516,-11.211491,-12.049055,-0.837564,11.630273,-5.186963,-6.443310,-4.167366,-3.553438,-16.359758,-16.449547,-16.212416,-14.038754,6
74366512,-11.285496,-12.069654,-0.784159,11.677575,-5.250669,-6.426907,-4.142141,-3.494644,-16.308355,-16.397190,-16.160965,-14.024162,6
74368508,-11.335897,-12.087297,-0.751400,11.711597,-5.292249,-6.419349,-4.119110,-3.445911,-16.264772,-16.355228,-16.119337,-14.019251,6
74370505,-11.343670,-12.091541,-0.747871,11.717606,-5.297899,-6.419706,-4.113054,-3.433323,-16.251135,-16.341877,-16.106176,-14.028168,6
74372502,-11.305761,-12.084913,-0.779152,11.695337,-5.263305,-6.432033,-4.133272,-3.472614,-16.279316,-16.368961,-16.133547,-14.062643,6
74374499,-11.237097,-12.068796,-0.831699,11.652946,-5.202699,-6.450248,-4.169178,-3.544235,-16.335154,-16.423893,-16.187859,-14.109802,6
74376495,-11.176968,-12.056017,-0.879049,11.616492,-5.148959,-6.467533,-4.203176,-3.613091,-16.390419,-16.477108,-16.241837,-14.155293,6
74378492,-11.145067,-12.048435,-0.903368,11.596751,-5.120850,-6.475902,-4.224396,-3.655624,-16.425467,-16.511059,-16.275167,-14.190578,6
74380489,-11.153698,-12.051678,-0.897980,11.602688,-5.127859,-6.474829,-4.228640,-3.662777,-16.432810,-16.518879,-16.282558,-14.208841,6
74382491,-11.193752,-12.063456,-0.869703,11.628604,-5.162024,-6.466579,-4.212809,-3.634310,-16.411734,-16.498137,-16.262054,-14.210129,6
74384483,-11.252403,-12.077856,-0.825453,11.665130,-5.213475,-6.451654,-4.173994,-3.569937,-16.364241,-16.451883,-16.215515,-14.174271,6
74386480,-11.311531,-12.088203,-0.776672,11.699867,-5.267429,-6.432438,-4.134035,-3.494215,-16.304970,-16.393948,-16.157675,-14.084387,6
74388477,-11.356640,-12.101126,-0.744486,11.728883,-5.306077,-6.422806,-4.109859,-3.442574,-16.259432,-16.350460,-16.114378,-14.017630,6
74390473,-11.370850,-12.106609,-0.735760,11.738729,-5.317545,-6.421185,-4.109335,-3.433800,-16.248035,-16.338587,-16.102982,-14.003849,6
74392470,-11.333036,-12.098217,-0.765181,11.715627,-5.283928,-6.431699,-4.132032,-3.470993,-16.275740,-16.365862,-16.129017,-14.034557,6
74394467,-11.262655,-12.081909,-0.819254,11.672282,-5.221701,-6.450582,-4.171181,-3.540325,-16.332531,-16.420126,-16.183615,-14.082050,6
74396464,-11.200619,-12.066221,-0.865602,11.633420,-5.167508,-6.465912,-4.203796,-3.607655,-16.387272,-16.473627,-16.237974,-14.128780,6
74398461,-11.160803,-12.054157,-0.893354,11.607480,-5.133724,-6.473756,-4.220104,-3.649044,-16.421652,-16.507339,-16.272497,-14.163065,6
74400457,-11.163378,-12.056684,-0.893307,11.610031,-5.135036,-6.474996,-4.222822,-3.657722,-16.430330,-16.516495,-16.280460,-14.182615,6
74402455,-11.199236,-12.069607,-0.870371,11.634421,-5.164433,-6.469989,-4.209900,-3.632259,-16.411352,-16.497231,-16.261673,-14.187527,6
74404451,-11.259508,-12.087393,-0.827885,11.673450,-5.215812,-6.457639,-4.177856,-3.576708,-16.368294,-16.454649,-16.218805,-14.173651,6
74406448,-11.324024,-12.102985,-0.778961,11.713505,-5.272532,-6.440973,-4.143429,-3.507900,-16.311741,-16.399908,-16.163921,-14.153671,6
74408445,-11.371565,-12.117100,-0.745535,11.744332,-5.313015,-6.431317,-4.117393,-3.453684,-16.266632,-16.356564,-16.120768,-14.144945,6
74410442,-11.380243,-12.120533,-0.740290,11.750388,-5.319977,-6.430411,-4.111910,-3.439236,-16.250563,-16.340590,-16.105366,-14.152670,6
74412438,-11.340189,-12.113380,-0.773191,11.726785,-5.283499,-6.443286,-4.132652,-3.474760,-16.277504,-16.366291,-16.131306,-14.183283,6
74414435,-11.271334,-12.096643,-0.825310,11.683989,-5.223012,-6.460977,-4.170609,-3.545570,-16.333151,-16.420317,-16.185188,-14.227295,6
74416432,-11.209059,-12.081337,-0.872278,11.645198,-5.168390,-6.476808,-4.203749,-3.612328,-16.387796,-16.473484,-16.238546,-14.271116,6
74418429,-11.172247,-12.070799,-0.898552,11.621523,-5.136847,-6.484675,-4.225016,-3.654385,-16.423607,-16.508389,-16.273308,-14.304733,6
74420429,-11.173439,-12.073517,-0.900078,11.623478,-5.136681,-6.486797,-4.229832,-3.664446,-16.432858,-16.517830,-16.282129,-14.324474,6
74422423,-11.199951,-12.075424,-0.875473,11.637688,-5.162239,-6.475449,-4.206276,-3.630447,-16.408968,-16.495419,-16.259861,-14.307165,6
74424420,-11.256075,-12.087917,-0.831842,11.671996,-5.212116,-6.459880,-4.173374,-3.571224,-16.363859,-16.451931,-16.215992,-14.242554,6
74426416,-11.329126,-12.113094,-0.783968,11.721110,-5.272579,-6.448531,-4.145002,-3.507042,-16.310835,-16.399097,-16.163349,-14.219904,6
74428413,-11.383009,-12.132406,-0.749397,11.757708,-5.316806,-6.440902,-4.119492,-3.455257,-16.267252,-16.356182,-16.120625,-14.215040,6
74430410,-11.392117,-12.136650,-0.744534,11.764383,-5.323792,-6.440592,-4.112101,-3.440094,-16.251659,-16.341257,-16.105747,-14.222765,6
74432407,-11.349201,-12.125349,-0.776148,11.737275,-5.286527,-6.450748,-4.128742,-3.474283,-16.276550,-16.365910,-16.130972,-14.252281,6
74434404,-11.271906,-12.101030,-0.829124,11.686468,-5.221391,-6.465077,-4.164028,-3.542376,-16.330433,-16.418600,-16.183901,-14.291906,6
74436401,-11.200762,-12.073135,-0.872374,11.636949,-5.164194,-6.472754,-4.191971,-3.603506,-16.382837,-16.470337,-16.234112,-14.292097,6
74438398,-11.167145,-12.062979,-0.895834,11.615062,-5.135655,-6.479406,-4.216766,-3.650808,-16.421127,-16.506910,-16.270447,-14.305210,6
74440394,-11.168432,-12.064600,-0.896168,11.616516,-5.136132,-6.480384,-4.222059,-3.660011,-16.430569,-16.516304,-16.280794,-14.325571,6
74442392,-11.198616,-12.073994,-0.875378,11.636305,-5.161619,-6.474686,-4.209042,-3.633595,-16.411257,-16.497183,-16.261768,-14.329529,6
74444388,-11.260271,-12.091827,-0.831556,11.676049,-5.214357,-6.461692,-4.179525,-3.577423,-16.368818,-16.454649,-16.219425,-14.319134,6
74446385,-11.328030,-12.111139,-0.783110,11.719584,-5.272460,-6.447124,-4.141188,-3.505039,-16.311502,-16.398811,-16.162729,-14.294386,6
74448382,-11.370993,-12.121677,-0.750685,11.746335,-5.310154,-6.436181,-4.110861,-3.449488,-16.264820,-16.353703,-16.118145,-14.269161,6
74450379,-11.370897,-12.116337,-0.745440,11.743617,-5.312729,-6.430888,-4.096556,-3.425932,-16.244221,-16.334724,-16.098738,-14.213037,6
74452376,-11.334467,-12.108421,-0.773954,11.721444,-5.280256,-6.441188,-4.121637,-3.466463,-16.271973,-16.361427,-16.126108,-14.220285,6
74454373,-11.266804,-12.090683,-0.823879,11.678743,-5.221462,-6.457281,-4.160881,-3.538322,-16.327810,-16.415596,-16.179943,-14.265013,6
74456369,-11.206436,-12.075520,-0.869083,11.640978,-5.168676,-6.472301,-4.197025,-3.607559,-16.384125,-16.470003,-16.234207,-14.310074,6
74458366,-11.170006,-12.065220,-0.895214,11.617613,-5.137396,-6.480217,-4.218340,-3.653002,-16.420126,-16.506481,-16.270304,-14.344883,6
74460365,-11.169243,-12.064934,-0.895691,11.617088,-5.136776,-6.480312,-4.224110,-3.665018,-16.430902,-16.516304,-16.280603,-14.367723,6
74462364,-11.188841,-12.059402,-0.870562,11.624122,-5.159140,-6.464982,-4.170275,-3.602695,-16.394472,-16.483498,-16.245413,-14.294577,6
74464360,-11.214113,-12.048435,-0.834322,11.631274,-5.189896,-6.441379,-4.091167,-3.501225,-16.326284,-16.427803,-16.184759,-14.009428,6
74466357,-11.277819,-12.064981,-0.787163,11.671400,-5.245328,-6.426072,-4.125881,-3.494930,-16.303873,-16.395330,-16.158342,-13.940859,6
74468354,-11.331511,-12.083006,-0.751495,11.707258,-5.290008,-6.417251,-4.109287,-3.450251,-16.264534,-16.354465,-16.118240,-13.940001,6
74470350,-11.339140,-12.085485,-0.746346,11.712313,-5.296397,-6.415915,-4.102564,-3.434467,-16.248512,-16.338778,-16.102934,-13.949347,6
74472347,-11.299467,-12.074375,-0.774908,11.686921,-5.262280,-6.424642,-4.120111,-3.466940,-16.272879,-16.362619,-16.126585,-13.979292,6
74474344,-11.230564,-12.056971,-0.826406,11.643767,-5.202079,-6.441689,-4.156494,-3.537464,-16.326904,-16.415787,-16.179037,-14.024639,6
74476342,-11.171532,-12.046194,-0.874662,11.608863,-5.148435,-6.460428,-4.194546,-3.606176,-16.382933,-16.470289,-16.234159,-14.072275,6
74478338,-11.135292,-12.035084,-0.899792,11.585188,-5.117750,-6.467438,-4.211855,-3.644753,-16.416311,-16.503143,-16.267157,-14.091301,6
74480335,-11.133862,-12.033415,-0.899553,11.583638,-5.117154,-6.466484,-4.215050,-3.653622,-16.425705,-16.512012,-16.275978,-14.072514,6
74482333,-11.172152,-12.049294,-0.877142,11.610723,-5.147505,-6.463218,-4.205990,-3.633308,-16.409826,-16.495991,-16.259766,-14.073277,6
74484329,-11.234856,-12.070036,-0.835180,11.652446,-5.199838,-6.452608,-4.177189,-3.577185,-16.367388,-16.454411,-16.218233,-14.060545,6
74486326,-11.307430,-12.094212,-0.786781,11.700821,-5.260324,-6.440496,-4.146194,-3.512335,-16.312313,-16.400290,-16.164827,-14.040661,6
74488322,-11.359644,-12.108040,-0.748396,11.733842,-5.305624,-6.428218,-4.115105,-3.453684,-16.264725,-16.354132,-16.118288,-14.016485,6
74490319,-11.368895,-12.107515,-0.738621,11.738205,-5.315137,-6.423068,-4.105520,-3.432798,-16.245842,-16.336012,-16.100454,-13.990736,6
74492316,-11.332560,-12.102461,-0.769901,11.717510,-5.281329,-6.436181,-4.126644,-3.468466,-16.271639,-16.360664,-16.125202,-14.016342,6
74494313,-11.260843,-12.086821,-0.825977,11.673832,-5.217433,-6.456399,-4.166889,-3.541851,-16.327524,-16.414213,-16.178942,-14.064407,6
74496310,-11.196804,-12.074280,-0.877476,11.635542,-5.159664,-6.475878,-4.204559,-3.612137,-16.384315,-16.469908,-16.234493,-14.113379,6
74498307,-11.158800,-12.067413,-0.908613,11.613107,-5.125093,-6.488013,-4.229259,-3.659344,-16.421652,-16.507339,-16.271162,-14.152384,6
74500303,-11.159277,-12.068224,-0.908947,11.613750,-5.125165,-6.488585,-4.233456,-3.670168,-16.432905,-16.518164,-16.282511,-14.172792,6
74502301,-11.191797,-12.075233,-0.883436,11.633515,-5.154181,-6.479335,-4.218006,-3.642893,-16.414785,-16.499853,-16.264486,-14.175749,6
74504297,-11.251116,-12.091112,-0.839996,11.671114,-5.205560,-6.465554,-4.190397,-3.585768,-16.372490,-16.459274,-16.222191,-14.160681,6
74506294,-11.320734,-12.110901,-0.790167,11.715817,-5.265284,-6.450534,-4.156685,-3.517008,-16.316938,-16.404247,-16.167641,-14.138460,6
74508291,-11.374426,-12.127972,-0.753546,11.751199,-5.310440,-6.440759,-4.129267,-3.462553,-16.270256,-16.358471,-16.123295,-14.130449,6
74510288,-11.384201,-12.132072,-0.747871,11.758137,-5.318165,-6.439972,-4.119730,-3.443289,-16.251898,-16.341496,-16.105604,-14.137554,6
74512285,-11.345816,-12.122583,-0.776768,11.734200,-5.284524,-6.449676,-4.132271,-3.471422,-16.273308,-16.362381,-16.127300,-14.157009,6
74514281,-11.268473,-12.097263,-0.828791,11.682868,-5.219841,-6.463027,-4.164124,-3.538799,-16.325331,-16.412830,-16.177940,-14.156723,6
74516278,-11.206579,-12.083626,-0.877047,11.645103,-5.164766,-6.480336,-4.205036,-3.612947,-16.383600,-16.470003,-16.234970,-14.190960,6
74518276,-11.169481,-12.073946,-0.904465,11.621714,-5.132508,-6.489205,-4.227924,-3.657389,-16.421747,-16.506958,-16.271830,-14.229727,6
74520272,-11.168718,-12.072372,-0.903654,11.620545,-5.132532,-6.488013,-4.232359,-3.666830,-16.432905,-16.518307,-16.282606,-14.251137,6
74522270,-11.204672,-12.080717,-0.876045,11.642694,-5.164313,-6.478381,-4.217720,-3.638554,-16.414165,-16.500044,-16.264391,-14.255381,6
74524266,-11.266947,-12.096691,-0.829744,11.681819,-5.218601,-6.463218,-4.185295,-3.581715,-16.371107,-16.457653,-16.222143,-14.236546,6
74526262,-11.334467,-12.113094,-0.778627,11.723781,-5.277920,-6.445861,-4.145622,-3.511047,-16.313410,-16.401339,-16.166162,-14.198589,6
74528259,-11.384392,-12.127542,-0.743151,11.755967,-5.320621,-6.435347,-4.120684,-3.457165,-16.267776,-16.357136,-16.121626,-14.162493,6
74530256,-11.398029,-12.135077,-0.737047,11.766553,-5.330491,-6.436062,-4.115391,-3.440809,-16.251564,-16.340780,-16.104937,-14.167690,6
74532254,-11.364222,-12.127399,-0.763178,11.745811,-5.300522,-6.445289,-4.133511,-3.472710,-16.274643,-16.362953,-16.127634,-14.194202,6
74534250,-11.291218,-12.107801,-0.816584,11.699510,-5.237317,-6.462193,-4.170513,-3.544617,-16.328621,-16.416025,-16.179991,-14.240217,6
74536246,-11.221313,-12.088633,-0.867319,11.654973,-5.176997,-6.477976,-4.207277,-3.614664,-16.384411,-16.471577,-16.234827,-14.285374,6
74538243,-11.177540,-12.075949,-0.898409,11.626744,-5.139565,-6.487179,-4.229832,-3.657913,-16.422081,-16.507387,-16.270971,-14.321184,6
74540240,-11.175203,-12.077284,-0.902081,11.626244,-5.136561,-6.489682,-4.235840,-3.669167,-16.433764,-16.518641,-16.282892,-14.344358,6
74542238,-11.207867,-12.085724,-0.877857,11.646795,-5.165005,-6.481791,-4.220009,-3.644323,-16.415739,-16.501236,-16.265726,-14.348507,6
74544234,-11.264181,-12.099838,-0.835657,11.682010,-5.214262,-6.467748,-4.188347,-3.585529,-16.372776,-16.460752,-16.224957,-14.327860,6
74546231,-11.335230,-12.118053,-0.782824,11.726642,-5.276203,-6.450438,-4.155636,-3.518343,-16.318655,-16.406775,-16.170359,-14.308453,6
74548227,-11.388636,-12.134600,-0.745964,11.761618,-5.321336,-6.440282,-4.126167,-3.462696,-16.272497,-16.360712,-16.124916,-14.299965,6
74550224,-11.397648,-12.136793,-0.739145,11.767220,-5.329251,-6.437969,-4.116488,-3.444576,-16.253424,-16.342354,-16.107178,-14.306879,6
74552221,-11.359024,-12.125778,-0.766754,11.742401,-5.296135,-6.446266,-4.131079,-3.474474,-16.275215,-16.363192,-16.128063,-14.333344,6
74554218,-11.285257,-12.102842,-0.817585,11.694050,-5.233836,-6.460214,-4.160690,-3.538465,-16.325998,-16.413116,-16.177320,-14.362669,6
74556216,-11.209440,-12.078333,-0.868893,11.643887,-5.170274,-6.473613,-4.192781,-3.603411,-16.381025,-16.466236,-16.230774,-14.361572,6
74558216,-11.165571,-12.066984,-0.901413,11.616278,-5.132079,-6.484199,-4.221249,-3.653193,-16.419744,-16.505098,-16.270018,-14.388514,6
74560216,-11.161327,-12.067080,-0.905752,11.614203,-5.127788,-6.486416,-4.228210,-3.667974,-16.432095,-16.517973,-16.282225,-14.410496,6
74562206,-11.190462,-12.077141,-0.886679,11.633801,-5.151892,-6.481910,-4.215288,-3.643799,-16.415310,-16.501284,-16.264629,-14.414310,6
74564205,-11.241198,-12.087297,-0.846100,11.664248,-5.197549,-6.466699,-4.178572,-3.582621,-16.370916,-16.458368,-16.222811,-14.385796,6
74566202,-11.282063,-12.079573,-0.797510,11.680818,-5.242276,-6.438541,-4.071188,-3.447819,-16.280508,-16.380644,-16.142321,-14.181805,6
74568199,-11.312103,-12.078381,-0.766277,11.695242,-5.272913,-6.422329,-4.061699,-3.409433,-16.236973,-16.342306,-16.104364,-13.946819,6
74570196,-11.329126,-12.082911,-0.753784,11.706018,-5.287671,-6.418347,-4.100657,-3.431416,-16.248083,-16.339397,-16.102695,-13.950109,6
