timestamp_us,I_mV,II_mV,III_mV,aVR_mV,aVL_mV,aVF_mV,V1_mV,V2_mV,V3_mV,V4_mV,V5_mV,V6_mV,gain
683605768,-11.590528,-13.050175,-1.459646,12.320352,-5.065441,-7.254910,-4.778528,-4.066038,-16.849089,-16.928530,-16.700983,-16.783047,6
683607765,-11.583185,-13.046932,-1.463747,12.315059,-5.059719,-7.255340,-4.775095,-4.062605,-16.848230,-16.927719,-16.700220,-16.782618,6
683609762,-11.547756,-13.030434,-1.482677,12.289095,-5.032539,-7.256556,-4.786348,-4.087067,-16.867304,-16.947222,-16.718340,-16.798353,6
683611759,-11.508322,-13.022089,-1.513767,12.265205,-4.997277,-7.267928,-4.816866,-4.136896,-16.901684,-16.981554,-16.753864,-16.832161,6
683613757,-11.479759,-13.015985,-1.536226,12.247872,-4.971766,-7.276106,-4.833889,-4.168129,-16.926575,-17.005968,-16.779137,-16.858530,6
683615755,-11.470652,-13.014317,-1.543665,12.242484,-4.963493,-7.278991,-4.842091,-4.183722,-16.939592,-17.019272,-16.792583,-16.873693,6
683617752,-11.479330,-13.018894,-1.539564,12.249112,-4.969883,-7.279229,-4.840565,-4.182339,-16.939354,-17.018986,-16.792011,-16.875219,6
683619750,-11.501694,-13.024855,-1.523161,12.263274,-4.989266,-7.274008,-4.829550,-4.162025,-16.926384,-17.005777,-16.778326,-16.863871,6
683621748,-11.534500,-13.034296,-1.499796,12.284398,-5.017352,-7.267046,-4.810667,-4.128885,-16.900492,-16.980886,-16.753483,-16.839838,6
683623745,-11.573172,-13.046265,-1.473093,12.309718,-5.050039,-7.259679,-4.786921,-4.085875,-16.869164,-16.949224,-16.722298,-16.809988,6
683625743,-11.591578,-13.050556,-1.458979,12.321067,-5.066299,-7.254767,-4.772758,-4.058456,-16.848373,-16.927671,-16.700792,-16.789341,6
683627741,-11.579609,-13.046312,-1.466703,12.312961,-5.056453,-7.256508,-4.770565,-4.058695,-16.847181,-16.926813,-16.699409,-16.788244,6
683629738,-11.541748,-13.033199,-1.491451,12.287474,-5.025148,-7.262325,-4.791784,-4.093599,-16.869307,-16.949987,-16.722059,-16.810846,6
683631736,-11.497307,-13.019514,-1.522207,12.258410,-4.987550,-7.270861,-4.817152,-4.138422,-16.901922,-16.982317,-16.755104,-16.843987,6
683633734,-11.468124,-13.010454,-1.542330,12.239289,-4.962897,-7.276392,-4.830933,-4.168224,-16.924667,-17.004585,-16.777706,-16.867495,6
683635732,-11.454153,-13.005066,-1.550913,12.229609,-4.951620,-7.277989,-4.835796,-4.180813,-16.936588,-17.016602,-16.789436,-16.879463,6
683637729,-11.457539,-13.001537,-1.543999,12.229538,-4.956770,-7.272768,-4.829597,-4.175282,-16.934872,-17.014027,-16.787004,-16.875410,6
683639730,-11.483097,-13.009167,-1.526070,12.246132,-4.978514,-7.267618,-4.814672,-4.149914,-16.919994,-17.000389,-16.772938,-16.860914,6
683641727,-11.484909,-12.991238,-1.506329,12.238073,-4.989290,-7.248783,-4.718447,-4.043388,-16.869974,-16.950417,-16.718721,-16.782522,6
683643725,-11.508560,-12.992287,-1.483727,12.250423,-5.012417,-7.238007,-4.741383,-4.042578,-16.854477,-16.934919,-16.704369,-16.721296,6
683645724,-11.536026,-13.001251,-1.465225,12.268639,-5.035400,-7.233238,-4.758215,-4.045343,-16.844463,-16.924810,-16.695786,-16.714859,6
683647721,-11.534548,-13.002205,-1.467657,12.268376,-5.033445,-7.234931,-4.756498,-4.043770,-16.843891,-16.923761,-16.694593,-16.726589,6
683649718,-11.501122,-12.991190,-1.490068,12.246156,-5.005527,-7.240629,-4.769135,-4.068995,-16.862440,-16.942167,-16.713095,-16.741467,6
683651716,-11.465216,-12.985992,-1.520777,12.225604,-4.972219,-7.253385,-4.798841,-4.117203,-16.895247,-16.975307,-16.745234,-16.765451,6
683653714,-11.443806,-12.982941,-1.539135,12.213373,-4.952335,-7.261038,-4.818678,-4.152966,-16.920424,-16.999865,-16.770792,-16.800737,6
683655712,-11.439991,-12.986088,-1.546097,12.213039,-4.946947,-7.266092,-4.829311,-4.171562,-16.934919,-17.014456,-16.785955,-16.828537,6
683657710,-11.450768,-12.993431,-1.542664,12.222099,-4.954052,-7.268047,-4.831409,-4.173040,-16.936541,-17.016745,-16.787338,-16.842318,6
683659708,-11.472750,-13.001776,-1.529026,12.237263,-4.971862,-7.265401,-4.821110,-4.157019,-16.926003,-17.005062,-16.777086,-16.839886,6
683661706,-11.509848,-13.013649,-1.503801,12.261748,-5.003023,-7.258725,-4.803467,-4.126406,-16.901827,-16.980886,-16.753435,-16.822863,6
683663703,-11.554527,-13.028812,-1.474285,12.291670,-5.040121,-7.251549,-4.782295,-4.082966,-16.868830,-16.948700,-16.721439,-16.795254,6
683665701,-11.581755,-13.036251,-1.454496,12.309003,-5.063629,-7.245374,-4.768324,-4.053688,-16.846132,-16.926861,-16.698933,-16.776419,6
683667700,-11.577368,-13.035059,-1.457691,12.306213,-5.059838,-7.246375,-4.763412,-4.049635,-16.843176,-16.924047,-16.696024,-16.775084,6
683669697,-11.536694,-13.018703,-1.482010,12.277699,-5.027342,-7.250357,-4.775763,-4.074526,-16.861868,-16.941690,-16.713428,-16.790915,6
683671695,-11.493969,-13.009167,-1.515198,12.251568,-4.989386,-7.262182,-4.804564,-4.122686,-16.896629,-16.975498,-16.748333,-16.823483,6
683673692,-11.466312,-13.002872,-1.536560,12.234592,-4.964876,-7.269716,-4.824877,-4.159117,-16.922426,-17.001820,-16.774273,-16.850996,6
683675690,-11.451721,-13.001060,-1.549339,12.226391,-4.951191,-7.275200,-4.836035,-4.177523,-16.938782,-17.017746,-16.790581,-16.868877,6
683677688,-11.455345,-13.005161,-1.549816,12.230253,-4.952765,-7.277489,-4.837084,-4.178381,-16.941929,-17.021513,-16.794062,-16.873837,6
683679685,-11.479473,-13.014030,-1.534557,12.246752,-4.972458,-7.274294,-4.827070,-4.162502,-16.931248,-17.011404,-16.783094,-16.865873,6
683681683,-11.515188,-13.023663,-1.508474,12.269425,-5.003357,-7.266068,-4.806709,-4.126263,-16.905212,-16.985703,-16.758204,-16.842270,6
683683681,-11.561966,-13.039780,-1.477814,12.300873,-5.042076,-7.258797,-4.785776,-4.083490,-16.872311,-16.952085,-16.725016,-16.810131,6
683685678,-11.588192,-13.048267,-1.460075,12.318230,-5.064058,-7.254171,-4.769516,-4.055548,-16.848850,-16.928482,-16.701460,-16.788101,6
683687676,-11.583185,-13.045597,-1.462412,12.314391,-5.060387,-7.254004,-4.764128,-4.052925,-16.845560,-16.925526,-16.697836,-16.784811,6
683689674,-11.553383,-13.037252,-1.483870,12.295318,-5.034757,-7.260561,-4.781580,-4.083204,-16.867018,-16.946459,-16.718435,-16.806269,6
683691671,-11.512184,-13.026571,-1.514387,12.269378,-4.998899,-7.270479,-4.809332,-4.131556,-16.900587,-16.980267,-16.752195,-16.840744,6
683693670,-11.479378,-13.012457,-1.533079,12.245917,-4.973149,-7.272768,-4.819345,-4.158735,-16.922474,-17.002201,-16.774845,-16.863060,6
683695667,-11.459780,-13.000059,-1.540279,12.229919,-4.959750,-7.270169,-4.820061,-4.168272,-16.932774,-17.012691,-16.785908,-16.870737,6
683697664,-11.469126,-13.007736,-1.538610,12.238431,-4.965258,-7.273173,-4.828787,-4.177046,-16.937494,-17.017794,-16.790009,-16.875029,6
683699662,-11.496353,-13.019180,-1.522827,12.257767,-4.986763,-7.271004,-4.822254,-4.164553,-16.928291,-17.008257,-16.780710,-16.866398,6
683701660,-11.533833,-13.034201,-1.500368,12.284017,-5.016732,-7.267284,-4.806280,-4.134798,-16.904593,-16.984510,-16.757011,-16.843700,6
683703657,-11.575508,-13.046455,-1.470947,12.310982,-5.052280,-7.258701,-4.781914,-4.092455,-16.872978,-16.953135,-16.725159,-16.813612,6
683705656,-11.600733,-13.052845,-1.452112,12.326789,-5.074310,-7.252479,-4.765129,-4.062700,-16.849804,-16.929817,-16.702461,-16.791344,6
683707653,-11.596251,-13.049841,-1.453590,12.323046,-5.071330,-7.251716,-4.760361,-4.056358,-16.846275,-16.926241,-16.698408,-16.787148,6
683709651,-11.561346,-13.036442,-1.475096,12.298894,-5.043125,-7.255769,-4.775095,-4.086924,-16.867208,-16.946936,-16.719103,-16.808558,6
683711648,-11.512995,-13.016987,-1.503992,12.264991,-5.004501,-7.260489,-4.793215,-4.125929,-16.898441,-16.977835,-16.750050,-16.837454,6
683713646,-11.481428,-13.008785,-1.527357,12.245107,-4.977036,-7.268071,-4.819107,-4.165745,-16.924238,-17.004538,-16.776896,-16.864395,6
683715644,-11.468744,-13.007641,-1.538897,12.238193,-4.964924,-7.273269,-4.832697,-4.185963,-16.938734,-17.018700,-16.791439,-16.880131,6
683717642,-11.472034,-13.007736,-1.535702,12.239885,-4.968166,-7.271719,-4.833031,-4.189205,-16.939735,-17.019892,-16.792679,-16.881514,6
683719639,-11.492777,-13.016033,-1.523256,12.254405,-4.984760,-7.269645,-4.824495,-4.174280,-16.929483,-17.009687,-16.782379,-16.872406,6
683721637,-11.528921,-13.025808,-1.496887,12.277365,-5.016017,-7.261348,-4.806471,-4.140663,-16.905642,-16.984892,-16.757870,-16.849327,6
683723635,-11.570501,-13.039446,-1.468945,12.304974,-5.050778,-7.254195,-4.784250,-4.098368,-16.873884,-16.952896,-16.726446,-16.818047,6
683725633,-11.596537,-13.048077,-1.451540,12.322307,-5.072498,-7.249808,-4.771852,-4.070139,-16.850281,-16.930056,-16.703796,-16.795063,6
683727630,-11.598921,-13.048792,-1.449871,12.323856,-5.074525,-7.249331,-4.770660,-4.069138,-16.847324,-16.927576,-16.700745,-16.792488,6
683729628,-11.567116,-13.036585,-1.469469,12.301850,-5.048823,-7.253027,-4.782391,-4.093981,-16.866112,-16.946173,-16.718483,-16.811085,6
683731626,-11.520338,-13.024092,-1.503754,12.272215,-5.008292,-7.263923,-4.805279,-4.136944,-16.898155,-16.978359,-16.750622,-16.843176,6
683733624,-11.483383,-13.011789,-1.528406,12.247586,-4.977489,-7.270098,-4.822397,-4.167604,-16.921759,-17.001724,-16.774750,-16.866875,6
683735621,-11.466265,-13.006163,-1.539898,12.236214,-4.963183,-7.273030,-4.833174,-4.183435,-16.935539,-17.015648,-16.789436,-16.879797,6
683737619,-11.474514,-13.009644,-1.535130,12.242079,-4.969692,-7.272387,-4.835320,-4.189014,-16.939688,-17.019272,-16.792488,-16.883993,6
683739617,-11.499166,-13.017893,-1.518726,12.258530,-4.990220,-7.268310,-4.825544,-4.172993,-16.929579,-17.009068,-16.782188,-16.874266,6
683741618,-11.530304,-13.024855,-1.494551,12.277579,-5.017877,-7.259703,-4.796696,-4.128504,-16.901684,-16.981459,-16.753912,-16.846085,6
683743615,-11.535835,-13.006783,-1.470947,12.271309,-5.032444,-7.238865,-4.694080,-4.009533,-16.844177,-16.923666,-16.691542,-16.769361,6
683745614,-11.542368,-13.000536,-1.458168,12.271452,-5.042100,-7.229352,-4.724550,-4.020500,-16.835642,-16.915464,-16.684580,-16.744947,6
683747611,-11.545706,-13.003969,-1.458263,12.274837,-5.043721,-7.231116,-4.753447,-4.044294,-16.840458,-16.920280,-16.692019,-16.756010,6
683749609,-11.519003,-12.999153,-1.480150,12.259078,-5.019426,-7.239652,-4.773998,-4.075909,-16.860342,-16.940069,-16.711903,-16.779470,6
683751606,-11.474657,-12.984705,-1.510048,12.229681,-4.982305,-7.247376,-4.794931,-4.118204,-16.891956,-16.971350,-16.742229,-16.809130,6
683753604,-11.448097,-12.979555,-1.531458,12.213826,-4.958320,-7.255507,-4.817295,-4.155970,-16.918564,-16.998196,-16.769886,-16.833448,6
683755602,-11.439323,-12.982845,-1.543522,12.211084,-4.947901,-7.263184,-4.830551,-4.180574,-16.935396,-17.014933,-16.787481,-16.854668,6
683757601,-11.446428,-12.988710,-1.542282,12.217569,-4.952073,-7.265496,-4.833841,-4.185390,-16.938639,-17.018414,-16.790485,-16.862488,6
683759597,-11.472082,-12.999678,-1.527596,12.235880,-4.972243,-7.263637,-4.825068,-4.169750,-16.928005,-17.008114,-16.779995,-16.856003,6
683761595,-11.512804,-13.013554,-1.500750,12.263179,-5.006027,-7.257152,-4.807425,-4.137945,-16.903353,-16.983461,-16.756153,-16.834497,6
683763593,-11.560822,-13.031912,-1.471090,12.296367,-5.044866,-7.251501,-4.783726,-4.094791,-16.870737,-16.951323,-16.723680,-16.804314,6
683765592,-11.587954,-13.042307,-1.454353,12.315130,-5.066800,-7.248330,-4.767132,-4.065752,-16.847515,-16.927910,-16.699982,-16.782141,6
683767589,-11.588812,-13.044930,-1.456118,12.316871,-5.066347,-7.250524,-4.763031,-4.060698,-16.843557,-16.923618,-16.695786,-16.778898,6
683769586,-11.552858,-13.034201,-1.481342,12.293530,-5.035758,-7.257771,-4.776669,-4.085636,-16.859770,-16.940355,-16.712999,-16.794300,6
683771584,-11.509991,-13.026524,-1.516533,12.268257,-4.996729,-7.271528,-4.807425,-4.134512,-16.894197,-16.974735,-16.747332,-16.827726,6
683773582,-11.482143,-13.021517,-1.539373,12.251830,-4.971385,-7.280445,-4.826832,-4.170036,-16.921091,-17.000961,-16.773796,-16.855812,6
683775580,-11.470413,-13.019037,-1.548624,12.244725,-4.960895,-7.283831,-4.837084,-4.190874,-16.938543,-17.017412,-16.790676,-16.874218,6
683777578,-11.473989,-13.020802,-1.546812,12.247396,-4.963589,-7.283807,-4.838133,-4.192781,-16.941166,-17.020655,-16.793585,-16.878128,6
683779575,-11.496496,-13.029146,-1.532650,12.262821,-4.981923,-7.280898,-4.829407,-4.176426,-16.930246,-17.010117,-16.782808,-16.868162,6
683781573,-11.529922,-13.040018,-1.510096,12.284970,-5.009913,-7.275057,-4.811954,-4.143238,-16.905832,-16.985512,-16.758394,-16.845560,6
683783571,-11.569691,-13.053274,-1.483583,12.311482,-5.043054,-7.268429,-4.790354,-4.100943,-16.874743,-16.954088,-16.726542,-16.815472,6
683785568,-11.591244,-13.058949,-1.467705,12.325096,-5.061769,-7.263327,-4.772615,-4.070711,-16.850805,-16.929913,-16.702986,-16.792059,6
683787567,-11.584663,-13.054705,-1.470041,12.319684,-5.057311,-7.262373,-4.766083,-4.063988,-16.845179,-16.924572,-16.697598,-16.786766,6
683789564,-11.548567,-13.037062,-1.488495,12.292814,-5.030036,-7.262778,-4.774523,-4.085350,-16.861391,-16.941071,-16.712809,-16.801119,6
683791562,-11.506033,-13.025522,-1.519489,12.265778,-4.993272,-7.272506,-4.801798,-4.133415,-16.894388,-16.974068,-16.746902,-16.834354,6
683793560,-11.475039,-13.019991,-1.544952,12.247515,-4.965043,-7.282472,-4.824638,-4.172134,-16.920280,-16.999674,-16.772318,-16.860819,6
683795558,-11.462975,-13.018322,-1.555347,12.240648,-4.953814,-7.286835,-4.836464,-4.194069,-16.935492,-17.015982,-16.788340,-16.877079,6
683797555,-11.467075,-13.019371,-1.552296,12.243223,-4.957390,-7.285833,-4.838705,-4.195404,-16.938543,-17.018366,-16.791630,-16.880655,6
683799553,-11.485386,-13.026047,-1.540661,12.255716,-4.972363,-7.283354,-4.831648,-4.179525,-16.928530,-17.007923,-16.781187,-16.871119,6
683801551,-11.516285,-13.036680,-1.520395,12.276483,-4.997945,-7.278538,-4.815197,-4.149675,-16.905451,-16.984987,-16.757965,-16.848516,6
683803548,-11.562300,-13.051319,-1.489019,12.306809,-5.036640,-7.270169,-4.792309,-4.109573,-16.873312,-16.953325,-16.726923,-16.817904,6
683805547,-11.592007,-13.061905,-1.469898,12.326956,-5.061054,-7.265902,-4.776764,-4.079390,-16.849661,-16.929626,-16.702747,-16.794586,6
683807545,-11.586046,-13.059187,-1.473141,12.322617,-5.056453,-7.266164,-4.772234,-4.071617,-16.845512,-16.925430,-16.699123,-16.790771,6
683809542,-11.548710,-13.039398,-1.490688,12.294054,-5.029011,-7.265043,-4.781532,-4.090548,-16.860390,-16.940689,-16.714334,-16.805220,6
683811539,-11.508417,-13.030005,-1.521587,12.269211,-4.993415,-7.275796,-4.811811,-4.139328,-16.894770,-16.974783,-16.747808,-16.838598,6
683813537,-11.481857,-13.024044,-1.542187,12.252951,-4.969835,-7.283115,-4.832840,-4.176092,-16.919708,-17.000294,-16.772795,-16.864347,6
683815535,-11.470222,-13.021278,-1.551056,12.245750,-4.959583,-7.286167,-4.842138,-4.195166,-16.935062,-17.015791,-16.788435,-16.879749,6
683817533,-11.474895,-13.023233,-1.548338,12.249064,-4.963279,-7.285786,-4.840899,-4.198408,-16.937876,-17.017984,-16.790771,-16.882181,6
683819530,-11.495543,-13.028002,-1.532459,12.261772,-4.981542,-7.280231,-4.831791,-4.182482,-16.928291,-17.008018,-16.781044,-16.872501,6
683821528,-11.528015,-13.038635,-1.510620,12.283325,-5.008698,-7.274628,-4.815388,-4.149961,-16.904926,-16.984272,-16.757584,-16.850090,6
683823526,-11.566830,-13.051558,-1.484728,12.309194,-5.041051,-7.268143,-4.793262,-4.108095,-16.873693,-16.952848,-16.725826,-16.818810,6
683825523,-11.589956,-13.058233,-1.468277,12.324095,-5.060840,-7.263255,-4.777193,-4.076385,-16.849899,-16.929340,-16.702223,-16.795206,6
683827521,-11.586046,-13.056087,-1.470041,12.321067,-5.058002,-7.263064,-4.772854,-4.070187,-16.845083,-16.924572,-16.697502,-16.790247,6
683829519,-11.552095,-13.044739,-1.492643,12.298417,-5.029726,-7.268691,-4.790735,-4.099655,-16.864252,-16.943645,-16.716194,-16.809607,6
683831518,-11.502838,-13.024521,-1.521683,12.263680,-4.990578,-7.273102,-4.807568,-4.137564,-16.892958,-16.972971,-16.746140,-16.837931,6
683833514,-11.468458,-13.011360,-1.542902,12.239909,-4.962778,-7.277131,-4.827785,-4.172516,-16.918373,-16.998625,-16.771746,-16.863441,6
683835511,-11.456442,-13.009501,-1.553059,12.232971,-4.951692,-7.281280,-4.840469,-4.192448,-16.934395,-17.015028,-16.787577,-16.879988,6
683837509,-11.461592,-13.012266,-1.550674,12.236929,-4.955459,-7.281470,-4.842186,-4.194307,-16.937399,-17.017698,-16.790104,-16.883421,6
683839507,-11.483717,-13.021564,-1.537848,12.252641,-4.972935,-7.279706,-4.834080,-4.182434,-16.928768,-17.009449,-16.781425,-16.875935,6
683841504,-11.516047,-13.031101,-1.515055,12.273574,-5.000496,-7.273078,-4.817057,-4.149771,-16.906977,-16.987228,-16.759586,-16.853857,6
683843503,-11.557341,-13.046217,-1.488876,12.301779,-5.034232,-7.267547,-4.793262,-4.106331,-16.876030,-16.956043,-16.728973,-16.822529,6
683845504,-11.566353,-13.038921,-1.472569,12.302637,-5.046892,-7.255745,-4.726505,-4.029131,-16.834354,-16.914701,-16.685820,-16.775846,6
683847502,-11.527538,-13.007879,-1.480341,12.267709,-5.023599,-7.244110,-4.684544,-3.985977,-16.817904,-16.898251,-16.668463,-16.743374,6
683849498,-11.496115,-12.991285,-1.495171,12.243700,-5.000472,-7.243228,-4.762793,-4.064894,-16.856623,-16.936541,-16.708136,-16.778469,6
683851496,-11.461353,-12.983751,-1.522398,12.222552,-4.969478,-7.253075,-4.793167,-4.114914,-16.890097,-16.970062,-16.740990,-16.808271,6
683853494,-11.438513,-12.984514,-1.546001,12.211514,-4.946256,-7.265258,-4.815292,-4.157782,-16.916704,-16.997004,-16.768503,-16.837549,6
683855492,-11.431503,-12.985134,-1.553631,12.208319,-4.938936,-7.269382,-4.824924,-4.177666,-16.932201,-17.011976,-16.784763,-16.855907,6
683857489,-11.437750,-12.988377,-1.550627,12.213063,-4.943562,-7.269502,-4.826975,-4.178047,-16.934299,-17.014074,-16.786861,-16.861486,6
683859487,-11.456919,-12.996292,-1.539373,12.226605,-4.958773,-7.267833,-4.819345,-4.160643,-16.924953,-17.003965,-16.777134,-16.854858,6
683861485,-11.488867,-13.006258,-1.517391,12.247562,-4.985738,-7.261825,-4.803944,-4.132700,-16.903067,-16.981983,-16.754484,-16.835546,6
683863483,-11.529636,-13.022375,-1.492739,12.276006,-5.018449,-7.257557,-4.782629,-4.095793,-16.872120,-16.952324,-16.724634,-16.808081,6
683865481,-11.558342,-13.034725,-1.476383,12.296534,-5.040979,-7.255554,-4.766512,-4.068565,-16.849375,-16.929817,-16.702604,-16.786814,6
683867479,-11.563492,-13.039875,-1.476383,12.301683,-5.043554,-7.258129,-4.762602,-4.062414,-16.846228,-16.926622,-16.697788,-16.782904,6
683869476,-11.535215,-13.028574,-1.493359,12.281895,-5.020928,-7.260966,-4.773426,-4.085970,-16.862011,-16.942453,-16.713333,-16.798449,6
683871474,-11.491966,-13.014221,-1.522255,12.253094,-4.984856,-7.268238,-4.797268,-4.130316,-16.892767,-16.973114,-16.744947,-16.827774,6
683873472,-11.466122,-13.013077,-1.546955,12.239599,-4.959583,-7.280016,-4.821396,-4.170752,-16.920280,-17.000151,-16.773081,-16.855907,6
683875469,-11.456108,-13.013363,-1.557255,12.234735,-4.949427,-7.285309,-4.831266,-4.190779,-16.935778,-17.015314,-16.788101,-16.872358,6
683877467,-11.461592,-13.015890,-1.554298,12.238741,-4.953647,-7.285094,-4.830694,-4.192400,-16.936922,-17.016602,-16.789007,-16.875601,6
683879464,-11.484957,-13.021994,-1.537037,12.253475,-4.973960,-7.279515,-4.821730,-4.174519,-16.925859,-17.005634,-16.778088,-16.865587,6
683881462,-11.516190,-13.028908,-1.512718,12.272549,-5.001736,-7.270813,-4.805756,-4.144526,-16.903496,-16.983318,-16.757059,-16.844606,6
683883460,-11.556101,-13.040352,-1.484251,12.298226,-5.035925,-7.262301,-4.785728,-4.105520,-16.873932,-16.954136,-16.727400,-16.815472,6
683885458,-11.579514,-13.047600,-1.468086,12.313557,-5.055714,-7.257843,-4.771328,-4.078579,-16.851282,-16.931391,-16.704416,-16.793537,6
683887455,-11.576462,-13.048506,-1.472044,12.312484,-5.052209,-7.260275,-4.769039,-4.074192,-16.847181,-16.927481,-16.699934,-16.790199,6
683889453,-11.548948,-13.039398,-1.490450,12.294173,-5.029249,-7.264924,-4.783440,-4.099941,-16.864347,-16.944695,-16.717482,-16.808224,6
683891453,-11.509991,-13.030481,-1.520491,12.270236,-4.994750,-7.275486,-4.807091,-4.143953,-16.895390,-16.975546,-16.748381,-16.839218,6
683893448,-11.477280,-13.017893,-1.540613,12.247586,-4.968333,-7.279253,-4.817438,-4.171038,-16.917181,-16.997194,-16.769266,-16.859388,6
683895446,-11.466122,-13.014746,-1.548624,12.240434,-4.958749,-7.281685,-4.828119,-4.190826,-16.931820,-17.011929,-16.784716,-16.874504,6
683897444,-11.470890,-13.016987,-1.546097,12.243938,-4.962397,-7.281542,-4.832602,-4.196501,-16.935205,-17.014933,-16.788197,-16.878414,6
683899442,-11.489773,-13.024807,-1.535034,12.257290,-4.977369,-7.279921,-4.823160,-4.181576,-16.925764,-17.005634,-16.778994,-16.869211,6
683901439,-11.521387,-13.033867,-1.512480,12.277627,-5.004454,-7.273173,-4.806376,-4.150915,-16.903782,-16.983747,-16.756964,-16.848421,6
683903437,-11.560488,-13.044739,-1.484251,12.302613,-5.038118,-7.264495,-4.783392,-4.109335,-16.874218,-16.954708,-16.727257,-16.819477,6
683905436,-11.583471,-13.052320,-1.468849,12.317896,-5.057311,-7.260585,-4.765463,-4.081059,-16.852951,-16.932678,-16.706324,-16.798067,6
683907433,-11.580849,-13.054323,-1.473475,12.317586,-5.053687,-7.263899,-4.759932,-4.073477,-16.848421,-16.928577,-16.701794,-16.793489,6
683909430,-11.553383,-13.045025,-1.491642,12.299204,-5.030870,-7.268333,-4.775620,-4.098606,-16.864109,-16.944695,-16.717291,-16.809416,6
683911427,-11.507130,-13.026094,-1.518965,12.266612,-4.994082,-7.272530,-4.793358,-4.133987,-16.891527,-16.970968,-16.743803,-16.834831,6
683913425,-11.474514,-13.016891,-1.542377,12.245703,-4.966068,-7.279634,-4.817200,-4.171991,-16.917181,-16.997623,-16.770172,-16.861010,6
683915423,-11.460972,-13.013601,-1.552629,12.237287,-4.954171,-7.283115,-4.827642,-4.190111,-16.932631,-17.012167,-16.785479,-16.876316,6
683917420,-11.461353,-13.011503,-1.550150,12.236428,-4.955602,-7.280827,-4.827023,-4.189062,-16.935110,-17.015171,-16.787815,-16.879320,6
683919418,-11.480236,-13.019276,-1.539040,12.249756,-4.970598,-7.279158,-4.819107,-4.174662,-16.926813,-17.006588,-16.779757,-16.870832,6
683921416,-11.512089,-13.029671,-1.517582,12.270880,-4.997253,-7.273626,-4.804182,-4.147625,-16.904926,-16.984653,-16.758156,-16.850662,6
683923413,-11.551523,-13.044310,-1.492786,12.297916,-5.029368,-7.268548,-4.782581,-4.107809,-16.875124,-16.955566,-16.728449,-16.821575,6
683925412,-11.577415,-13.054466,-1.477051,12.315941,-5.050182,-7.265759,-4.766560,-4.078245,-16.852427,-16.933155,-16.705418,-16.798973,6
683927409,-11.579561,-13.056612,-1.477051,12.318087,-5.051255,-7.266831,-4.763174,-4.071140,-16.847324,-16.927767,-16.700602,-16.793585,6
683929407,-11.554480,-13.047886,-1.493406,12.301183,-5.030537,-7.270646,-4.778624,-4.093933,-16.864109,-16.943789,-16.717768,-16.810608,6
683931404,-11.516047,-13.036680,-1.520634,12.276363,-4.997706,-7.278657,-4.802799,-4.133177,-16.895771,-16.975069,-16.749096,-16.841936,6
683933402,-11.481857,-13.025618,-1.543760,12.253737,-4.969049,-7.284689,-4.819012,-4.161263,-16.919422,-16.999197,-16.771984,-16.865587,6
683935400,-11.468935,-13.017750,-1.548815,12.243342,-4.960060,-7.283282,-4.821968,-4.170370,-16.928196,-17.008352,-16.780567,-16.873074,6
683937397,-11.479807,-13.022709,-1.542902,12.251258,-4.968452,-7.282805,-4.823446,-4.169321,-16.927433,-17.006922,-16.779900,-16.872978,6
683939395,-11.500072,-13.030958,-1.530886,12.265515,-4.984593,-7.280922,-4.814434,-4.155350,-16.918135,-16.997528,-16.770315,-16.863680,6
683941393,-11.528349,-13.040018,-1.511669,12.284184,-5.008340,-7.275844,-4.800129,-4.128504,-16.897202,-16.977501,-16.750145,-16.843987,6
683943390,-11.562347,-13.050413,-1.488066,12.306380,-5.037141,-7.269239,-4.783773,-4.093742,-16.869688,-16.949654,-16.722012,-16.816664,6
683945390,-11.579132,-13.056707,-1.477575,12.317920,-5.050778,-7.267141,-4.773188,-4.073858,-16.851807,-16.931868,-16.704607,-16.798782,6
683947388,-11.573315,-13.052893,-1.479578,12.313104,-5.046868,-7.266235,-4.768038,-4.070282,-16.850328,-16.930056,-16.702557,-16.796827,6
683949386,-11.515570,-13.017368,-1.501799,12.266469,-5.006886,-7.259583,-4.708433,-4.027653,-16.844130,-16.924286,-16.692305,-16.778898,6
683951384,-11.447763,-12.985373,-1.537609,12.216568,-4.955077,-7.261491,-4.752398,-4.083824,-16.882753,-16.963005,-16.732264,-16.807652,6
683953381,-11.424255,-12.978077,-1.553822,12.201166,-4.935217,-7.265949,-4.817533,-4.158401,-16.921997,-17.002773,-16.774464,-16.851377,6
683955379,-11.423492,-12.980604,-1.557112,12.202048,-4.933190,-7.268858,-4.827023,-4.174805,-16.935968,-17.015648,-16.788530,-16.867447,6
683957377,-11.436176,-12.986135,-1.549959,12.211156,-4.943109,-7.268047,-4.826784,-4.172516,-16.935492,-17.014408,-16.788244,-16.867924,6
683959375,-11.457062,-12.990189,-1.533127,12.223625,-4.961967,-7.261658,-4.811525,-4.150105,-16.920757,-17.000151,-16.772890,-16.852760,6
683961372,-11.486292,-13.000107,-1.513815,12.243199,-4.986238,-7.256961,-4.799891,-4.126453,-16.900158,-16.980219,-16.752529,-16.831779,6
683963370,-11.527014,-13.014698,-1.487684,12.270856,-5.019665,-7.251191,-4.781199,-4.091120,-16.873693,-16.953421,-16.725683,-16.807222,6
683965369,-11.549711,-13.022852,-1.473141,12.286282,-5.038285,-7.247996,-4.769468,-4.067278,-16.854429,-16.934967,-16.707182,-16.790485,6
683967366,-11.544991,-13.023329,-1.478338,12.284160,-5.033326,-7.250834,-4.767036,-4.067612,-16.853762,-16.934443,-16.706896,-16.790819,6
683969364,-11.500645,-13.005066,-1.504421,12.252855,-4.998112,-7.254744,-4.782963,-4.100752,-16.879034,-16.959143,-16.731405,-16.814423,6
683971361,-11.454439,-12.984848,-1.530409,12.219644,-4.962015,-7.257628,-4.804802,-4.140234,-16.910553,-16.990805,-16.762686,-16.842222,6
683973359,-11.444378,-12.983370,-1.538992,12.213874,-4.952693,-7.261181,-4.819965,-4.167128,-16.928244,-17.008591,-16.780901,-16.861534,6
683975357,-11.461592,-12.992477,-1.530886,12.227035,-4.965353,-7.261682,-4.817677,-4.166412,-16.925907,-17.005920,-16.778326,-16.860247,6
683977354,-11.475372,-12.999010,-1.523638,12.237191,-4.975867,-7.261324,-4.814339,-4.161882,-16.921616,-17.001247,-16.774035,-16.857815,6
683979352,-11.492920,-13.007975,-1.515055,12.250447,-4.988933,-7.261515,-4.809332,-4.151154,-16.913319,-16.992760,-16.765690,-16.851807,6
683981350,-11.518621,-13.016748,-1.498127,12.267685,-5.010247,-7.257438,-4.796839,-4.125452,-16.893911,-16.973829,-16.746855,-16.833496,6
683983348,-11.548948,-13.027716,-1.478767,12.288332,-5.035090,-7.253242,-4.783201,-4.096842,-16.870642,-16.950703,-16.723680,-16.811323,6
683985346,-11.559057,-13.030481,-1.471424,12.294769,-5.043817,-7.250953,-4.775476,-4.083204,-16.859913,-16.939259,-16.712379,-16.800833,6
683987343,-11.547375,-13.026905,-1.479530,12.287140,-5.033922,-7.253218,-4.777479,-4.088497,-16.864872,-16.943932,-16.717100,-16.805840,6
683989342,-11.519957,-13.021231,-1.501274,12.270594,-5.009341,-7.261252,-4.794645,-4.117584,-16.882372,-16.961765,-16.735077,-16.823864,6
683991339,-11.485434,-13.010883,-1.525450,12.248158,-4.979992,-7.268167,-4.806805,-4.151487,-16.906595,-16.986799,-16.759491,-16.848755,6
683993337,-11.463070,-13.005114,-1.542044,12.234092,-4.960513,-7.273579,-4.819441,-4.177809,-16.926575,-17.006445,-16.779041,-16.866779,6
683995335,-11.467409,-13.012266,-1.544857,12.239838,-4.961276,-7.278562,-4.828358,-4.187202,-16.934204,-17.013931,-16.786766,-16.874743,6
683997332,-11.482763,-13.018322,-1.535559,12.250543,-4.973602,-7.276940,-4.822636,-4.176664,-16.928148,-17.007160,-16.780186,-16.869164,6
683999330,-11.503744,-13.023424,-1.519680,12.263584,-4.992032,-7.271552,-4.810715,-4.158163,-16.916227,-16.995478,-16.768408,-16.857815,6
684001328,-11.529064,-13.031197,-1.502132,12.280130,-5.013466,-7.266665,-4.794741,-4.132032,-16.896582,-16.976166,-16.749573,-16.839695,6
684003326,-11.561251,-13.043547,-1.482296,12.302399,-5.039477,-7.262921,-4.780054,-4.100847,-16.872978,-16.953230,-16.726494,-16.817427,6
684005324,-11.573839,-13.049221,-1.475382,12.311530,-5.049229,-7.262301,-4.771662,-4.085112,-16.859627,-16.938972,-16.712284,-16.803741,6
684007321,-11.560249,-13.043737,-1.483488,12.301993,-5.038381,-7.263613,-4.776287,-4.093981,-16.864777,-16.944695,-16.716576,-16.807222,6
684009319,-11.529875,-13.033199,-1.503325,12.281537,-5.013275,-7.268262,-4.791212,-4.125071,-16.883802,-16.964149,-16.735983,-16.827774,6
684011316,-11.498499,-13.025141,-1.526642,12.261820,-4.985929,-7.275891,-4.808664,-4.161835,-16.909504,-16.989899,-16.762590,-16.855431,6
684013314,-11.485958,-13.020802,-1.534843,12.253380,-4.975557,-7.277822,-4.818010,-4.180717,-16.923475,-17.003584,-16.776371,-16.869116,6
684015313,-11.492062,-13.023233,-1.531172,12.257648,-4.980445,-7.277203,-4.817200,-4.178953,-16.924143,-17.003536,-16.776752,-16.868925,6
684017310,-11.497831,-13.020945,-1.523113,12.259388,-4.987359,-7.272029,-4.804564,-4.163933,-16.915035,-16.994858,-16.768074,-16.859913,6
684019308,-11.515760,-13.028812,-1.513052,12.272286,-5.001354,-7.270932,-4.803276,-4.154968,-16.907644,-16.987658,-16.760635,-16.852379,6
684021307,-11.543655,-13.039970,-1.496315,12.291813,-5.023670,-7.268143,-4.792738,-4.132795,-16.890621,-16.971874,-16.744232,-16.836452,6
684023303,-11.575747,-13.051176,-1.475430,12.313461,-5.050159,-7.263303,-4.777527,-4.103851,-16.869259,-16.950226,-16.722631,-16.815424,6
684025302,-11.580706,-13.054752,-1.474047,12.317729,-5.053329,-7.264400,-4.775333,-4.097605,-16.862249,-16.942263,-16.715479,-16.808844,6
684027299,-11.563873,-13.052511,-1.488638,12.308192,-5.037618,-7.270575,-4.782581,-4.107618,-16.870975,-16.950417,-16.723728,-16.816425,6
684029297,-11.534834,-13.039637,-1.504803,12.287235,-5.015016,-7.272220,-4.789209,-4.124737,-16.884518,-16.964436,-16.737032,-16.829062,6
684031296,-11.499262,-13.024902,-1.525640,12.262082,-4.986811,-7.275271,-4.806757,-4.157162,-16.908407,-16.988420,-16.761112,-16.851997,6
684033293,-11.483145,-13.022852,-1.539707,12.252998,-4.971719,-7.281280,-4.823303,-4.183531,-16.927147,-17.007208,-16.780663,-16.871977,6
684035290,-11.482954,-13.025045,-1.542091,12.254000,-4.970431,-7.283568,-4.824734,-4.188347,-16.931868,-17.011595,-16.784477,-16.876745,6
684037288,-11.493397,-13.028574,-1.535177,12.260985,-4.979110,-7.281876,-4.821587,-4.179144,-16.926384,-17.006445,-16.778755,-16.871548,6
684039286,-11.514282,-13.035917,-1.521635,12.275100,-4.996324,-7.278776,-4.813766,-4.160500,-16.914606,-16.994572,-16.767454,-16.860962,6
684041284,-11.536789,-13.042545,-1.505756,12.289667,-5.015516,-7.274151,-4.800749,-4.135275,-16.895866,-16.975451,-16.747999,-16.841650,6
684043281,-11.564112,-13.050747,-1.486635,12.307429,-5.038738,-7.268691,-4.783344,-4.104614,-16.871309,-16.951418,-16.724443,-16.817665,6
684045280,-11.581182,-13.057375,-1.476192,12.319279,-5.052495,-7.266784,-4.773998,-4.085159,-16.854143,-16.934490,-16.707706,-16.801357,6
684047279,-11.576271,-13.055897,-1.479626,12.316084,-5.048323,-7.267761,-4.770565,-4.084253,-16.854048,-16.934013,-16.706896,-16.800880,6
684049278,-11.540651,-13.036108,-1.495457,12.288380,-5.022597,-7.265782,-4.754591,-4.078007,-16.860247,-16.940403,-16.710854,-16.801929,6
684051276,-11.468601,-12.991905,-1.523304,12.230253,-4.972649,-7.257605,-4.710627,-4.049158,-16.866541,-16.947126,-16.713285,-16.787338,6
684053274,-11.435699,-12.977266,-1.541567,12.206483,-4.947066,-7.259417,-4.794884,-4.133654,-16.907597,-16.986942,-16.757536,-16.821671,6
684055271,-11.440659,-12.982512,-1.541853,12.211585,-4.949403,-7.262182,-4.817057,-4.156160,-16.920471,-16.999674,-16.771650,-16.838837,6
684057269,-11.456347,-12.991428,-1.535082,12.223887,-4.960632,-7.263255,-4.816198,-4.152393,-16.917610,-16.997147,-16.769075,-16.840553,6
684059267,-11.476088,-12.999392,-1.523304,12.237740,-4.976392,-7.261348,-4.810143,-4.140234,-16.909075,-16.989183,-16.760778,-16.835785,6
684061265,-11.503458,-13.008451,-1.504993,12.255955,-4.999232,-7.256722,-4.796648,-4.120636,-16.892004,-16.972065,-16.744566,-16.822386,6
684063262,-11.534882,-13.019657,-1.484776,12.277269,-5.025053,-7.252216,-4.781723,-4.090881,-16.869831,-16.949940,-16.722012,-16.803598,6
684065262,-11.551571,-13.027239,-1.475668,12.289405,-5.037951,-7.251453,-4.771996,-4.071236,-16.854620,-16.934109,-16.706753,-16.790009,6
684067259,-11.547279,-13.027000,-1.479721,12.287140,-5.033779,-7.253361,-4.770947,-4.069996,-16.854954,-16.933966,-16.707039,-16.790247,6
684069256,-11.518669,-13.016510,-1.497841,12.267590,-5.010414,-7.257175,-4.781246,-4.089642,-16.867828,-16.947222,-16.720247,-16.802359,6
684071254,-11.485147,-13.007975,-1.522827,12.246561,-4.981160,-7.265401,-4.806328,-4.130459,-16.894388,-16.975117,-16.747665,-16.827965,6
684073251,-11.468744,-13.007784,-1.539040,12.238264,-4.964852,-7.273412,-4.828501,-4.161930,-16.916084,-16.996717,-16.769266,-16.850901,6
684075249,-11.463118,-13.011694,-1.548576,12.237406,-4.957271,-7.280135,-4.836369,-4.175854,-16.927433,-17.007446,-16.780472,-16.863298,6
684077247,-11.470652,-13.016081,-1.545429,12.243366,-4.962611,-7.280755,-4.834032,-4.174185,-16.927576,-17.006922,-16.780138,-16.863680,6
684079244,-11.489153,-13.026524,-1.537371,12.257838,-4.975891,-7.281947,-4.828501,-4.163647,-16.918993,-16.999435,-16.771650,-16.857147,6
684081242,-11.514473,-13.035393,-1.520920,12.274933,-4.996777,-7.278156,-4.815531,-4.141903,-16.901827,-16.981745,-16.754436,-16.841650,6
684083240,-11.546135,-13.045835,-1.499701,12.295985,-5.023217,-7.272768,-4.798412,-4.110193,-16.877413,-16.957331,-16.730309,-16.818428,6
684085238,-11.563873,-13.048458,-1.484585,12.306166,-5.039644,-7.266521,-4.785013,-4.084349,-16.859055,-16.938591,-16.711187,-16.799784,6
684087235,-11.554575,-13.039398,-1.484823,12.296987,-5.034876,-7.262111,-4.776573,-4.077482,-16.855526,-16.934776,-16.707659,-16.795969,6
684089233,-11.529350,-13.026571,-1.497221,12.277961,-5.016065,-7.261896,-4.788113,-4.099226,-16.869497,-16.949606,-16.721439,-16.809034,6
684091231,-11.500549,-13.022614,-1.522064,12.261581,-4.989243,-7.272339,-4.814625,-4.141617,-16.899157,-16.977978,-16.750956,-16.838646,6
684093229,-11.476946,-13.017035,-1.540089,12.246990,-4.968429,-7.278562,-4.828882,-4.167604,-16.920424,-16.998911,-16.772127,-16.859865,6
684095227,-11.472511,-13.018370,-1.545858,12.245440,-4.963326,-7.282114,-4.836893,-4.181194,-16.931391,-17.010403,-16.783428,-16.872501,6
684097224,-11.479950,-13.021851,-1.541901,12.250900,-4.969025,-7.281876,-4.836750,-4.180050,-16.930914,-17.010880,-16.782856,-16.872978,6
684099222,-11.495066,-13.029623,-1.534557,12.262344,-4.980254,-7.282090,-4.828739,-4.165983,-16.923094,-17.003012,-16.775656,-16.865444,6
684101220,-11.518097,-13.037395,-1.519299,12.277746,-4.999399,-7.278347,-4.816866,-4.145861,-16.906261,-16.986656,-16.759634,-16.849709,6
684103217,-11.552668,-13.049650,-1.496983,12.301159,-5.027843,-7.273316,-4.801226,-4.117346,-16.882706,-16.962910,-16.736078,-16.826725,6
684105217,-11.573839,-13.055611,-1.481771,12.314725,-5.046034,-7.268691,-4.788589,-4.094648,-16.863537,-16.943693,-16.717148,-16.808271,6
684107218,-11.568880,-13.053131,-1.484251,12.311006,-5.042315,-7.268691,-4.784203,-4.090261,-16.860723,-16.941118,-16.713858,-16.804981,6
684109216,-11.539984,-13.043690,-1.503706,12.291837,-5.018139,-7.273698,-4.795361,-4.111767,-16.876698,-16.956758,-16.729212,-16.821146,6
684111216,-11.496830,-13.025618,-1.528788,12.261224,-4.984021,-7.277203,-4.806328,-4.140568,-16.900206,-16.979837,-16.752625,-16.843987,6
684113206,-11.469889,-13.014889,-1.545000,12.242389,-4.962444,-7.279944,-4.823351,-4.170179,-16.921854,-17.001438,-16.774654,-16.865110,6
684115204,-11.466312,-13.016701,-1.550388,12.241507,-4.957962,-7.283545,-4.831743,-4.185390,-16.934443,-17.013836,-16.787100,-16.878128,6
684117201,-11.472988,-13.019037,-1.546049,12.246013,-4.963470,-7.282543,-4.831076,-4.184914,-16.934681,-17.014933,-16.787815,-16.879320,6
684119199,-11.489820,-13.024473,-1.534653,12.257147,-4.977584,-7.279563,-4.819870,-4.168129,-16.924477,-17.004824,-16.777611,-16.869688,6
684121197,-11.514378,-13.031292,-1.516914,12.272835,-4.998732,-7.274103,-4.805851,-4.144096,-16.907024,-16.986799,-16.759729,-16.852188,6
684123194,-11.546612,-13.042402,-1.495790,12.294507,-5.025411,-7.269096,-4.790831,-4.115200,-16.883707,-16.963530,-16.736937,-16.829205,6
684125193,-11.565256,-13.048887,-1.483631,12.307072,-5.040812,-7.266259,-4.776669,-4.092884,-16.865301,-16.944838,-16.717815,-16.811371,6
684127191,-11.559391,-13.047266,-1.487875,12.303329,-5.035758,-7.267570,-4.775476,-4.091024,-16.862965,-16.942215,-16.715813,-16.809511,6
684129188,-11.528540,-13.033724,-1.505184,12.281132,-5.011678,-7.269454,-4.783726,-4.107761,-16.875696,-16.954708,-16.728163,-16.820669,6
684131186,-11.487770,-13.017082,-1.529312,12.252426,-4.979229,-7.273197,-4.799271,-4.139996,-16.900349,-16.979885,-16.753435,-16.844845,6
684133184,-11.465502,-13.010979,-1.545477,12.238240,-4.960012,-7.278228,-4.820633,-4.171371,-16.923857,-17.004299,-16.777277,-16.869068,6
684135181,-11.459255,-13.011789,-1.552534,12.235522,-4.953361,-7.282162,-4.829407,-4.187012,-16.935682,-17.016268,-16.788864,-16.881657,6
684137179,-11.465406,-13.016272,-1.550865,12.240839,-4.957271,-7.283568,-4.830074,-4.187775,-16.935396,-17.015219,-16.787863,-16.880798,6
684139177,-11.483479,-13.023281,-1.539803,12.253380,-4.971838,-7.281542,-4.823256,-4.173088,-16.925526,-17.004824,-16.777611,-16.870880,6
684141175,-11.507845,-13.031864,-1.524019,12.269855,-4.991913,-7.277942,-4.810095,-4.147863,-16.907358,-16.987133,-16.759872,-16.853380,6
684143173,-11.542511,-13.043499,-1.500988,12.293005,-5.020761,-7.272243,-4.792833,-4.116535,-16.883183,-16.963482,-16.735506,-16.829491,6
684145171,-11.564445,-13.052273,-1.487827,12.308359,-5.038309,-7.270050,-4.780340,-4.092216,-16.864014,-16.944170,-16.716528,-16.810513,6
684147169,-11.559153,-13.047981,-1.488829,12.303567,-5.035162,-7.268405,-4.773331,-4.086924,-16.860199,-16.940641,-16.712475,-16.806364,6
684149166,-11.527967,-13.029861,-1.501894,12.278914,-5.013037,-7.265878,-4.778290,-4.100657,-16.870689,-16.950893,-16.723108,-16.816378,6
684151167,-11.491108,-13.015175,-1.524067,12.253141,-4.983521,-7.269621,-4.796076,-4.135036,-16.895485,-16.975069,-16.748047,-16.840553,6
684153165,-11.438036,-12.983370,-1.545334,12.210703,-4.946351,-7.264352,-4.741716,-4.097795,-16.894865,-16.974831,-16.742754,-16.825008,6
684155162,-11.404228,-12.963152,-1.558924,12.183690,-4.922652,-7.261038,-4.769897,-4.127026,-16.913462,-16.994047,-16.763163,-16.824389,6
684157160,-11.409712,-12.966108,-1.556396,12.187910,-4.926658,-7.261252,-4.815912,-4.168320,-16.929102,-17.009306,-16.781569,-16.844511,6
684159158,-11.432266,-12.976694,-1.544428,12.204480,-4.943919,-7.260561,-4.809427,-4.155588,-16.921663,-17.002773,-16.773558,-16.842031,6
684161156,-11.463451,-12.986040,-1.522589,12.224746,-4.970431,-7.254314,-4.795742,-4.130745,-16.904402,-16.985035,-16.757011,-16.829348,6
684163153,-11.499310,-12.999010,-1.499701,12.249160,-4.999804,-7.249355,-4.778337,-4.102755,-16.881657,-16.961527,-16.733599,-16.810036,6
684165152,-11.524010,-13.008404,-1.484394,12.266207,-5.019808,-7.246399,-4.764175,-4.079437,-16.862583,-16.943312,-16.715240,-16.793823,6
684167149,-11.527109,-13.008404,-1.481295,12.267756,-5.022907,-7.244849,-4.760838,-4.074192,-16.858339,-16.938782,-16.710663,-16.790199,6
684169147,-11.504221,-12.996864,-1.492643,12.250543,-5.005789,-7.244754,-4.767561,-4.088593,-16.869402,-16.949320,-16.721106,-16.797543,6
684171144,-11.477613,-12.993240,-1.515627,12.235427,-4.980993,-7.254434,-4.794073,-4.127455,-16.895151,-16.974974,-16.747904,-16.823053,6
684173142,-11.458302,-12.990999,-1.532698,12.224650,-4.962802,-7.261848,-4.811859,-4.156923,-16.917038,-16.996908,-16.769314,-16.847277,6
684175140,-11.453199,-12.993431,-1.540232,12.223315,-4.956484,-7.266831,-4.821968,-4.172230,-16.929626,-17.009068,-16.781616,-16.861391,6
684177138,-11.460829,-12.997389,-1.536560,12.229109,-4.962134,-7.266974,-4.821634,-4.174662,-16.931343,-17.011452,-16.783810,-16.865158,6
684179135,-11.482048,-13.007593,-1.525545,12.244821,-4.978251,-7.266569,-4.817009,-4.164267,-16.924095,-17.004013,-16.776323,-16.860008,6
684181133,-11.508560,-13.017845,-1.509285,12.263203,-4.999638,-7.263565,-4.805422,-4.139805,-16.906691,-16.986656,-16.759586,-16.844225,6
684183131,-11.541510,-13.030529,-1.489019,12.286019,-5.026245,-7.259774,-4.789209,-4.104710,-16.882324,-16.962433,-16.734886,-16.821527,6
684185129,-11.563253,-13.038111,-1.474857,12.300682,-5.044198,-7.256484,-4.774857,-4.080009,-16.862297,-16.942739,-16.714859,-16.803122,6
684187127,-11.560965,-13.037395,-1.476431,12.299180,-5.042267,-7.256913,-4.768324,-4.075432,-16.859627,-16.939449,-16.710711,-16.799068,6
684189124,-11.529970,-13.024139,-1.494169,12.277055,-5.017900,-7.259154,-4.778862,-4.095078,-16.872835,-16.952324,-16.724157,-16.809750,6
684191122,-11.496258,-13.015604,-1.519346,12.255931,-4.988456,-7.267475,-4.804325,-4.134274,-16.900635,-16.979790,-16.753531,-16.838264,6
684193120,-11.472988,-13.009977,-1.536989,12.241483,-4.967999,-7.273483,-4.816818,-4.161644,-16.920996,-17.000532,-16.774130,-16.860294,6
684195118,-11.466551,-13.010311,-1.543760,12.238431,-4.961395,-7.277036,-4.821539,-4.175091,-16.932106,-17.011070,-16.784382,-16.871691,6
684197115,-11.469078,-13.011503,-1.542425,12.240291,-4.963326,-7.276964,-4.821301,-4.175377,-16.933203,-17.013741,-16.785622,-16.873884,6
684199113,-11.486864,-13.018942,-1.532078,12.252903,-4.977393,-7.275510,-4.815245,-4.162502,-16.924381,-17.004776,-16.777372,-16.866112,6
684201111,-11.513996,-13.028097,-1.514101,12.271047,-4.999948,-7.271099,-4.802275,-4.138899,-16.906786,-16.987133,-16.760206,-16.848755,6
684203108,-11.550236,-13.041449,-1.491213,12.295842,-5.029511,-7.266331,-4.787207,-4.108524,-16.881943,-16.962147,-16.734934,-16.824818,6
684205107,-11.574793,-13.051081,-1.476288,12.312937,-5.049253,-7.263684,-4.775286,-4.084158,-16.861582,-16.941261,-16.714621,-16.805220,6
684207105,-11.575174,-13.050556,-1.475382,12.312865,-5.049896,-7.262969,-4.766846,-4.076719,-16.856146,-16.935921,-16.708326,-16.798544,6
684209102,-11.550093,-13.038540,-1.488447,12.294316,-5.030823,-7.263494,-4.772758,-4.089880,-16.866207,-16.945553,-16.718721,-16.807747,6
684211099,-11.517525,-13.031006,-1.513481,12.274265,-5.002022,-7.272243,-4.797125,-4.126978,-16.892385,-16.972494,-16.745281,-16.834879,6
684213097,-11.493444,-13.023233,-1.529789,12.258339,-4.981828,-7.276511,-4.811907,-4.154778,-16.913795,-16.994286,-16.766834,-16.856480,6
684215095,-11.485863,-13.020992,-1.535130,12.253428,-4.975367,-7.278061,-4.818535,-4.168177,-16.924715,-17.005396,-16.777945,-16.868114,6
684217092,-11.493969,-13.025951,-1.531982,12.259960,-4.980993,-7.278967,-4.819250,-4.170609,-16.925192,-17.005777,-16.777372,-16.869164,6
684219090,-11.515999,-13.035965,-1.519966,12.275982,-4.998016,-7.277966,-4.812670,-4.158306,-16.917658,-16.997480,-16.769648,-16.861343,6
684221088,-11.539316,-13.042545,-1.503229,12.290931,-5.018044,-7.272887,-4.799843,-4.136419,-16.900635,-16.980600,-16.753197,-16.844940,6
684223085,-11.567926,-13.052416,-1.484489,12.310171,-5.041718,-7.268453,-4.784107,-4.106808,-16.876841,-16.956663,-16.729450,-16.822290,6
684225083,-11.588001,-13.059044,-1.471043,12.323523,-5.058479,-7.265043,-4.768372,-4.082441,-16.856766,-16.936684,-16.709614,-16.802263,6
684227081,-11.586952,-13.056946,-1.469994,12.321949,-5.058479,-7.263470,-4.762697,-4.076385,-16.851521,-16.931820,-16.705036,-16.797161,6
684229079,-11.564493,-13.048840,-1.484346,12.306666,-5.040073,-7.266593,-4.776049,-4.098988,-16.866541,-16.945887,-16.719294,-16.811895,6
684231077,-11.526871,-13.034391,-1.507521,12.280631,-5.009675,-7.270956,-4.788446,-4.126549,-16.889715,-16.969204,-16.742325,-16.834450,6
684233075,-11.496019,-13.021421,-1.525402,12.258720,-4.985309,-7.273412,-4.802608,-4.150438,-16.909933,-16.989517,-16.762114,-16.853237,6
684235072,-11.488771,-13.024139,-1.535368,12.256455,-4.976702,-7.279754,-4.820156,-4.171085,-16.923761,-17.003489,-16.776037,-16.867495,6
684237070,-11.493587,-13.026094,-1.532507,12.259841,-4.980540,-7.279301,-4.820395,-4.169750,-16.923523,-17.003155,-16.775942,-16.867828,6
684239068,-11.511374,-13.033009,-1.521635,12.272191,-4.994869,-7.277322,-4.813099,-4.156590,-16.915655,-16.995144,-16.768503,-16.860056,6
684241065,-11.533833,-13.037205,-1.503372,12.285519,-5.015230,-7.270288,-4.799700,-4.132605,-16.898584,-16.977787,-16.751003,-16.843510,6
684243063,-11.563587,-13.047028,-1.483440,12.305307,-5.040073,-7.265234,-4.782867,-4.099798,-16.874027,-16.953278,-16.726303,-16.819811,6
684245061,-11.584234,-13.054705,-1.470470,12.319469,-5.056882,-7.262588,-4.771566,-4.075480,-16.853380,-16.933060,-16.706514,-16.799021,6
684247059,-11.581182,-13.053274,-1.472092,12.317228,-5.054545,-7.262683,-4.769659,-4.070807,-16.848946,-16.928864,-16.702366,-16.794395,6
684249057,-11.554289,-13.040686,-1.486397,12.297487,-5.033946,-7.263541,-4.781580,-4.089212,-16.860723,-16.940689,-16.713810,-16.806030,6
684251054,-11.511660,-13.024282,-1.512623,12.267971,-4.999518,-7.268453,-4.800892,-4.123163,-16.885567,-16.965246,-16.738176,-16.829443,6
684253055,-11.480856,-13.015938,-1.535082,12.248397,-4.972887,-7.275510,-4.817963,-4.155159,-16.908836,-16.988802,-16.761398,-16.853333,6
684255053,-11.442947,-12.989283,-1.546335,12.216115,-4.948306,-7.267809,-4.751492,-4.102802,-16.897297,-16.977406,-16.746473,-16.829014,6
684257051,-11.419725,-12.971687,-1.551962,12.195706,-4.933882,-7.261825,-4.769754,-4.118299,-16.905069,-16.985130,-16.754818,-16.819525,6
684259048,-11.442137,-12.979460,-1.537323,12.210798,-4.952407,-7.258391,-4.812527,-4.148483,-16.913176,-16.993141,-16.765118,-16.831779,6
684261046,-11.469030,-12.988520,-1.519489,12.228775,-4.974771,-7.254004,-4.801369,-4.126835,-16.898489,-16.978312,-16.750193,-16.821337,6
684263044,-11.505127,-13.002062,-1.496935,12.253594,-5.004096,-7.249498,-4.787064,-4.095840,-16.876173,-16.955900,-16.727877,-16.802692,6
684265043,-11.531019,-13.012409,-1.481390,12.271714,-5.024815,-7.246900,-4.774475,-4.070044,-16.855431,-16.936159,-16.707468,-16.786194,6
684267040,-11.531687,-13.014269,-1.482582,12.272978,-5.024552,-7.248425,-4.767895,-4.062462,-16.849470,-16.929150,-16.701078,-16.780901,6
684269037,-11.506033,-13.002634,-1.496601,12.254333,-5.004716,-7.249618,-4.775381,-4.078674,-16.858959,-16.939163,-16.711283,-16.787672,6
684271035,-11.474180,-12.996626,-1.522446,12.235403,-4.975867,-7.259536,-4.798937,-4.116535,-16.886425,-16.966057,-16.738510,-16.814661,6
684273033,-11.453247,-12.995052,-1.541805,12.224150,-4.955721,-7.268429,-4.816294,-4.145575,-16.908503,-16.987896,-16.761112,-16.838360,6
684275030,-11.447906,-12.997198,-1.549292,12.222552,-4.949307,-7.273245,-4.826736,-4.162073,-16.920614,-17.000818,-16.774130,-16.852379,6
684277028,-11.451912,-12.996626,-1.544714,12.224269,-4.953599,-7.270670,-4.826307,-4.162884,-16.921663,-17.001963,-16.774750,-16.855097,6
684279026,-11.467791,-13.002062,-1.534271,12.234926,-4.966760,-7.268167,-4.817247,-4.151392,-16.914749,-16.994286,-16.766548,-16.849566,6
684281023,-11.494684,-13.011312,-1.516628,12.252998,-4.989028,-7.263970,-4.803658,-4.128122,-16.898298,-16.977453,-16.750193,-16.835070,6
684283021,-11.528444,-13.022709,-1.494265,12.275577,-5.017090,-7.258487,-4.787064,-4.097652,-16.875315,-16.955090,-16.727924,-16.814423,6
684285019,-11.550999,-13.028240,-1.477242,12.289619,-5.036879,-7.252741,-4.772758,-4.073858,-16.855812,-16.935635,-16.707802,-16.795969,6
684287017,-11.548948,-13.025093,-1.476145,12.287021,-5.036402,-7.250619,-4.763937,-4.065418,-16.850042,-16.930199,-16.702795,-16.790247,6
684289014,-11.526918,-13.015366,-1.488447,12.271142,-5.019236,-7.251906,-4.773092,-4.082870,-16.862822,-16.942787,-16.715527,-16.803694,6
684291013,-11.491489,-13.003635,-1.512146,12.247562,-4.989672,-7.257891,-4.792833,-4.115820,-16.887045,-16.967630,-16.739941,-16.828823,6
684293010,-11.459446,-12.988853,-1.529408,12.224150,-4.965019,-7.259130,-4.800272,-4.135752,-16.904688,-16.985369,-16.757011,-16.844225,6
684295008,-11.451340,-12.986088,-1.534748,12.218714,-4.958296,-7.260418,-4.810524,-4.152393,-16.917610,-16.997766,-16.770029,-16.856384,6
684297005,-11.459780,-12.991953,-1.532173,12.225866,-4.963803,-7.262063,-4.815483,-4.156160,-16.919947,-16.999960,-16.773224,-16.859627,6
684299003,-11.479235,-13.003254,-1.524019,12.241244,-4.977608,-7.263637,-4.810619,-4.143953,-16.912270,-16.991949,-16.765547,-16.852951,6
684301000,-11.505604,-13.012838,-1.507235,12.259221,-4.999185,-7.260036,-4.801083,-4.121971,-16.895580,-16.975737,-16.748619,-16.837358,6
684302998,-11.533117,-13.022804,-1.489687,12.277961,-5.021715,-7.256246,-4.787016,-4.094887,-16.874647,-16.954851,-16.727304,-16.817093,6
684304997,-11.552525,-13.030005,-1.477480,12.291265,-5.037522,-7.253742,-4.775810,-4.072523,-16.856194,-16.935921,-16.709280,-16.800308,6
684306994,-11.552906,-13.033533,-1.480627,12.293220,-5.036139,-7.257080,-4.775000,-4.069853,-16.853380,-16.932917,-16.706085,-16.797590,6
684308992,-11.529732,-13.027477,-1.497746,12.278605,-5.015993,-7.262611,-4.782581,-4.087257,-16.864204,-16.943979,-16.716814,-16.807985,6
684310990,-11.499834,-13.018084,-1.518250,12.258959,-4.990792,-7.268167,-4.801798,-4.121351,-16.888428,-16.968298,-16.741180,-16.831732,6
684312987,-11.474943,-13.005304,-1.530361,12.240124,-4.972291,-7.267833,-4.809666,-4.140568,-16.904640,-16.984415,-16.756868,-16.846323,6
684314985,-11.468983,-13.007355,-1.538372,12.238169,-4.965305,-7.272863,-4.820538,-4.157257,-16.916752,-16.996574,-16.768980,-16.859245,6
684316982,-11.476517,-13.011169,-1.534653,12.243843,-4.970932,-7.272911,-4.821157,-4.159498,-16.917801,-16.998148,-16.770983,-16.861248,6
684318980,-11.496925,-13.021278,-1.524353,12.259102,-4.986286,-7.272816,-4.816532,-4.147863,-16.910601,-16.990519,-16.763735,-16.854715,6
684320978,-11.525106,-13.032150,-1.507044,12.278628,-5.009031,-7.269597,-4.804850,-4.127264,-16.895199,-16.975212,-16.747904,-16.839933,6
684322976,-11.556625,-13.044405,-1.487780,12.300515,-5.034423,-7.266092,-4.789782,-4.099989,-16.874647,-16.954184,-16.727638,-16.819811,6
684324974,-11.573887,-13.050842,-1.476955,12.312365,-5.048466,-7.263899,-4.779148,-4.080200,-16.857958,-16.937208,-16.710281,-16.803265,6
684326971,-11.571836,-13.048458,-1.476622,12.310147,-5.047607,-7.262540,-4.775667,-4.076338,-16.855240,-16.934586,-16.706562,-16.799831,6
684328969,-11.549950,-13.042164,-1.492214,12.296057,-5.028868,-7.267189,-4.789400,-4.096603,-16.868114,-16.947651,-16.720295,-16.813087,6
684330968,-11.519623,-13.031435,-1.511812,12.275529,-5.003905,-7.271624,-4.801607,-4.125404,-16.889238,-16.968536,-16.741705,-16.833448,6
684332965,-11.495924,-13.021517,-1.525593,12.258720,-4.985166,-7.273555,-4.812765,-4.146671,-16.904879,-16.984987,-16.757584,-16.848755,6
684334963,-11.493349,-13.028193,-1.534843,12.260771,-4.979253,-7.281518,-4.824829,-4.162836,-16.917181,-16.996813,-16.769838,-16.861629,6
684336960,-11.498022,-13.029575,-1.531553,12.263799,-4.983234,-7.280564,-4.826260,-4.163456,-16.918039,-16.997766,-16.770649,-16.863346,6
684338958,-11.513281,-13.035870,-1.522589,12.274575,-4.995346,-7.279229,-4.823065,-4.154301,-16.911364,-16.991138,-16.764593,-16.857147,6
684340956,-11.535883,-13.045168,-1.509285,12.290525,-5.013299,-7.277226,-4.813290,-4.136515,-16.897011,-16.977072,-16.749573,-16.842461,6
684342954,-11.563492,-13.058281,-1.494789,12.310886,-5.034351,-7.276535,-4.800510,-4.110909,-16.876173,-16.956186,-16.728210,-16.822386,6
684344951,-11.580658,-13.062477,-1.481819,12.321568,-5.049419,-7.272148,-4.788256,-4.088879,-16.857243,-16.937256,-16.709518,-16.804409,6
684346949,-11.579990,-13.061619,-1.481628,12.320805,-5.049181,-7.271624,-4.782391,-4.082918,-16.852093,-16.932535,-16.705179,-16.799498,6
684348948,-11.555386,-13.052654,-1.497269,12.304020,-5.029058,-7.274961,-4.785967,-4.094696,-16.861725,-16.941977,-16.714764,-16.808033,6
684350945,-11.517239,-13.039303,-1.522064,12.278271,-4.997587,-7.280684,-4.801798,-4.123497,-16.884613,-16.963959,-16.737556,-16.830015,6
684352943,-11.494923,-13.034725,-1.539803,12.264824,-4.977560,-7.287264,-4.825783,-4.157734,-16.906929,-16.987371,-16.760206,-16.852522,6
684354942,-11.488819,-13.033485,-1.544666,12.261152,-4.972076,-7.289076,-4.834843,-4.172182,-16.919279,-16.999769,-16.772461,-16.864634,6
684356941,-11.480856,-13.021183,-1.540327,12.251019,-4.970264,-7.280755,-4.803801,-4.146624,-16.911125,-16.991568,-16.762066,-16.852856,6
684358938,-11.456108,-12.994862,-1.538754,12.225485,-4.958677,-7.266808,-4.735041,-4.080009,-16.886425,-16.966486,-16.734457,-16.812181,6
684360936,-11.470890,-12.996960,-1.526070,12.233925,-4.972410,-7.261515,-4.792547,-4.120350,-16.894245,-16.973686,-16.745567,-16.819763,6
684362934,-11.507225,-13.010311,-1.503086,12.258768,-5.002069,-7.256699,-4.788780,-4.102373,-16.876650,-16.956520,-16.728020,-16.806793,6
684364933,-11.533546,-13.019419,-1.485872,12.276483,-5.023837,-7.252645,-4.776287,-4.079437,-16.856050,-16.936350,-16.708040,-16.789341,6
684366930,-11.537647,-13.020372,-1.482725,12.279010,-5.027461,-7.251549,-4.769993,-4.071379,-16.850328,-16.930008,-16.702414,-16.784048,6
684368928,-11.522627,-13.016891,-1.494265,12.269759,-5.014181,-7.255578,-4.780960,-4.090261,-16.862059,-16.941786,-16.714048,-16.797161,6
684370925,-11.487675,-13.005066,-1.517391,12.246370,-4.985142,-7.261229,-4.792690,-4.119205,-16.883898,-16.963243,-16.735840,-16.818094,6
684372923,-11.463881,-13.000536,-1.536655,12.232208,-4.963613,-7.268596,-4.812288,-4.153109,-16.905022,-16.984510,-16.757154,-16.837978,6
684374921,-11.458731,-13.003874,-1.545143,12.231302,-4.956794,-7.274508,-4.824162,-4.171848,-16.917896,-16.997623,-16.769791,-16.852427,6
684376919,-11.463022,-13.009453,-1.546431,12.236238,-4.958296,-7.277942,-4.827785,-4.175138,-16.920853,-17.000532,-16.773653,-16.856909,6
684378916,-11.483192,-13.019753,-1.536560,12.251472,-4.973316,-7.278156,-4.825354,-4.167604,-16.915226,-16.994810,-16.768026,-16.852760,6
684380914,-11.506844,-13.030720,-1.523876,12.268782,-4.991484,-7.277298,-4.815388,-4.149532,-16.900158,-16.980553,-16.753292,-16.839552,6
684382912,-11.539841,-13.041544,-1.501703,12.290692,-5.019069,-7.271624,-4.799891,-4.120398,-16.878319,-16.959047,-16.731977,-16.819286,6
684384910,-11.561251,-13.045979,-1.484728,12.303615,-5.038261,-7.265353,-4.785776,-4.095840,-16.858673,-16.938972,-16.712523,-16.800785,6
684386907,-11.557770,-13.042736,-1.484966,12.300253,-5.036402,-7.263851,-4.776096,-4.084158,-16.851616,-16.931391,-16.704607,-16.793299,6
684388905,-11.531544,-13.030148,-1.498604,12.280846,-5.016470,-7.264376,-4.781532,-4.098463,-16.861629,-16.941738,-16.713428,-16.800261,6
684390903,-11.503172,-13.025141,-1.521969,12.264156,-4.990602,-7.273555,-4.804659,-4.136419,-16.888523,-16.968298,-16.740561,-16.827917,6
684392900,-11.481810,-13.020849,-1.539040,12.251329,-4.971385,-7.279944,-4.820871,-4.165316,-16.910315,-16.989517,-16.762209,-16.849804,6
684394898,-11.473894,-13.019753,-1.545858,12.246823,-4.964018,-7.282805,-4.826260,-4.177523,-16.920996,-17.000914,-16.773987,-16.861582,6
684396896,-11.475897,-13.018703,-1.542807,12.247300,-4.966545,-7.280755,-4.826832,-4.178953,-16.921854,-17.001724,-16.774797,-16.863489,6
684398893,-11.490154,-13.022232,-1.532078,12.256193,-4.979038,-7.277155,-4.822350,-4.168797,-16.914940,-16.994905,-16.767311,-16.857100,6
684400891,-11.512852,-13.028622,-1.515770,12.270737,-4.998541,-7.272196,-4.812193,-4.148626,-16.899824,-16.980124,-16.752434,-16.843176,6
684402889,-11.540794,-13.037491,-1.496696,12.289143,-5.022049,-7.267094,-4.797363,-4.120970,-16.879034,-16.958570,-16.731453,-16.822100,6
684404887,-11.558104,-13.045120,-1.487017,12.301612,-5.035543,-7.266068,-4.784536,-4.099226,-16.861057,-16.940784,-16.713572,-16.804790,6
684406885,-11.557531,-13.045645,-1.488113,12.301588,-5.034709,-7.266879,-4.781199,-4.096651,-16.856956,-16.936111,-16.709423,-16.801167,6
684408882,-11.538363,-13.039446,-1.501083,12.288904,-5.018640,-7.270265,-4.790735,-4.111719,-16.866255,-16.946268,-16.719770,-16.811419,6
684410880,-11.511755,-13.031626,-1.519871,12.271690,-4.995942,-7.275748,-4.808283,-4.141378,-16.890049,-16.969728,-16.742516,-16.834927,6
684412877,-11.485815,-13.017702,-1.531887,12.251759,-4.976964,-7.274795,-4.814291,-4.160261,-16.906738,-16.986513,-16.759491,-16.850758,6
684414875,-11.480904,-13.017988,-1.537085,12.249446,-4.971910,-7.277536,-4.825640,-4.177237,-16.919613,-16.999388,-16.771650,-16.863441,6
684416873,-11.486340,-13.021660,-1.535320,12.254000,-4.975510,-7.278490,-4.829311,-4.181004,-16.921949,-17.002249,-16.774464,-16.867018,6
684418870,-11.500645,-13.027573,-1.526928,12.264109,-4.986858,-7.277250,-4.824400,-4.171467,-16.916323,-16.996241,-16.768217,-16.860676,6
684420868,-11.522388,-13.034678,-1.512289,12.278533,-5.005050,-7.273483,-4.812908,-4.150105,-16.900730,-16.980934,-16.753769,-16.845942,6
684422865,-11.552668,-13.044310,-1.491642,12.298489,-5.030513,-7.267976,-4.795313,-4.122543,-16.880083,-16.960239,-16.733170,-16.825867,6
684424864,-11.572361,-13.048840,-1.476479,12.310600,-5.047941,-7.262659,-4.778910,-4.099798,-16.862679,-16.942406,-16.715574,-16.808414,6
684426861,-11.571217,-13.045788,-1.474571,12.308502,-5.048323,-7.260180,-4.774475,-4.094934,-16.856909,-16.937637,-16.710329,-16.802788,6
684428859,-11.550283,-13.034010,-1.483727,12.292147,-5.033278,-7.258868,-4.778194,-4.105425,-16.865301,-16.945314,-16.718197,-16.810226,6
684430856,-11.520720,-13.024378,-1.503658,12.272549,-5.008531,-7.264018,-4.794216,-4.133368,-16.886759,-16.966724,-16.738939,-16.830873,6
684432854,-11.497784,-13.018942,-1.521158,12.258363,-4.988313,-7.270050,-4.811573,-4.160595,-16.907406,-16.987276,-16.759348,-16.851902,6
684434852,-11.487103,-13.017702,-1.530600,12.252402,-4.978251,-7.274151,-4.820204,-4.174614,-16.918612,-16.999197,-16.771793,-16.864061,6
684436849,-11.491108,-13.020945,-1.529837,12.256026,-4.980636,-7.275391,-4.822588,-4.179287,-16.921663,-17.001486,-16.774273,-16.867065,6
684438847,-11.504793,-13.028336,-1.523542,12.266564,-4.990625,-7.275939,-4.818249,-4.170227,-16.916132,-16.995716,-16.768122,-16.861391,6
684440845,-11.524582,-13.035202,-1.510620,12.279892,-5.006981,-7.272911,-4.806185,-4.149628,-16.901302,-16.981411,-16.753483,-16.846514,6
684442842,-11.554909,-13.046360,-1.491451,12.300634,-5.031729,-7.268906,-4.793024,-4.121542,-16.880608,-16.960430,-16.733599,-16.826677,6
684444841,-11.575699,-13.053751,-1.478052,12.314725,-5.048823,-7.265902,-4.783869,-4.099655,-16.862440,-16.942263,-16.715622,-16.808558,6
684446838,-11.573172,-13.054132,-1.480961,12.313652,-5.046105,-7.267547,-4.780960,-4.093122,-16.857433,-16.937780,-16.710234,-16.803551,6
684448836,-11.555290,-13.050842,-1.495552,12.303066,-5.029869,-7.273197,-4.794979,-4.111576,-16.869116,-16.948652,-16.721630,-16.815615,6
684450833,-11.521149,-13.039064,-1.517916,12.280107,-5.001616,-7.278490,-4.806709,-4.136658,-16.889238,-16.968632,-16.741467,-16.834736,6
684452831,-11.495256,-13.027000,-1.531744,12.261128,-4.981756,-7.279372,-4.816914,-4.159307,-16.906786,-16.986465,-16.759586,-16.852570,6
684454829,-11.491871,-13.030481,-1.538610,12.261176,-4.976630,-7.284546,-4.828548,-4.179192,-16.920519,-17.000246,-16.772699,-16.865635,6
684456828,-11.497307,-13.034630,-1.537323,12.265968,-4.979992,-7.285976,-4.829597,-4.182386,-16.923809,-17.003918,-16.776562,-16.869307,6
684458827,-11.503267,-13.031578,-1.528311,12.267423,-4.987478,-7.279944,-4.794836,-4.143524,-16.907501,-16.987514,-16.758728,-16.849709,6
684460825,-11.488628,-13.008213,-1.519585,12.248421,-4.984522,-7.263899,-4.723835,-4.066229,-16.874170,-16.954374,-16.722059,-16.801119,6
684462822,-11.510468,-13.012505,-1.502037,12.261486,-5.004215,-7.257271,-4.779100,-4.097748,-16.874504,-16.954708,-16.726112,-16.803312,6
684464821,-11.534452,-13.021135,-1.486683,12.277794,-5.023885,-7.253909,-4.778814,-4.083586,-16.860056,-16.940165,-16.712284,-16.792107,6
684466818,-11.535692,-13.019753,-1.484060,12.277722,-5.025816,-7.251906,-4.768896,-4.073095,-16.854572,-16.933870,-16.706228,-16.787100,6
684468815,-11.515188,-13.008881,-1.493692,12.262034,-5.010748,-7.251287,-4.774427,-4.082727,-16.862059,-16.941786,-16.714287,-16.793442,6
684470813,-11.491680,-13.005018,-1.513338,12.248349,-4.989171,-7.259178,-4.797983,-4.117966,-16.886568,-16.966534,-16.738224,-16.816711,6
684472811,-11.469936,-13.000441,-1.530504,12.235188,-4.969716,-7.265472,-4.812241,-4.146290,-16.906548,-16.986275,-16.758394,-16.838646,6
684474808,-11.462736,-13.000441,-1.537704,12.231588,-4.962516,-7.269073,-4.820299,-4.161215,-16.917610,-16.998100,-16.769934,-16.851997,6
684476806,-11.469984,-13.003111,-1.533127,12.236547,-4.968429,-7.268119,-4.819441,-4.161882,-16.919565,-16.999292,-16.771650,-16.855717,6
684478804,-11.491013,-13.011885,-1.520872,12.251449,-4.985070,-7.266378,-4.811192,-4.150152,-16.913414,-16.992950,-16.765404,-16.850042,6
684480801,-11.514521,-13.018131,-1.503611,12.266326,-5.005455,-7.260871,-4.800844,-4.132795,-16.899729,-16.978836,-16.751003,-16.837168,6
684482799,-11.541080,-13.027096,-1.486015,12.284088,-5.027533,-7.256556,-4.785490,-4.105711,-16.879129,-16.957855,-16.731453,-16.818237,6
684484799,-11.551905,-13.022852,-1.470947,12.287378,-5.040479,-7.246900,-4.750204,-4.064035,-16.851521,-16.931486,-16.703796,-16.788340,6
684486799,-11.525297,-13.001060,-1.475763,12.263179,-5.024767,-7.238412,-4.708958,-4.023600,-16.833496,-16.914415,-16.684914,-16.748238,6
684488794,-11.499977,-12.990427,-1.490450,12.245202,-5.004764,-7.240438,-4.756737,-4.073477,-16.858149,-16.937828,-16.708183,-16.754389,6
684490792,-11.476660,-12.987423,-1.510763,12.232041,-4.982948,-7.249093,-4.785824,-4.112530,-16.883802,-16.963196,-16.734171,-16.759443,6
684492790,-11.461449,-12.989616,-1.528168,12.225533,-4.966640,-7.258892,-4.808044,-4.146051,-16.905642,-16.985846,-16.757154,-16.785049,6
684494787,-11.460876,-12.995100,-1.534224,12.227988,-4.963326,-7.264662,-4.819250,-4.163551,-16.917038,-16.997337,-16.768408,-16.811609,6
684496785,-11.471558,-13.001633,-1.530075,12.236595,-4.970741,-7.265854,-4.821587,-4.166698,-16.918850,-16.999006,-16.770649,-16.825533,6
684498783,-11.492443,-13.009548,-1.517105,12.250996,-4.987669,-7.263327,-4.815388,-4.155350,-16.913414,-16.992712,-16.764450,-16.827536,6
684500781,-11.516047,-13.017607,-1.501560,12.266827,-5.007243,-7.259583,-4.804325,-4.136181,-16.898441,-16.978168,-16.750240,-16.819906,6
684502778,-11.542511,-13.028955,-1.486444,12.285733,-5.028033,-7.257700,-4.790163,-4.110384,-16.877985,-16.958475,-16.730738,-16.805220,6
684504777,-11.562109,-13.036251,-1.474142,12.299180,-5.043983,-7.255197,-4.778147,-4.088211,-16.860342,-16.939831,-16.712475,-16.789961,6
684506774,-11.561298,-13.036394,-1.475096,12.298846,-5.043101,-7.255745,-4.773617,-4.080486,-16.854191,-16.933346,-16.706514,-16.785431,6
684508773,-11.541700,-13.030148,-1.488447,12.285924,-5.026627,-7.259297,-4.782295,-4.095316,-16.863680,-16.943407,-16.716433,-16.795826,6
684510770,-11.508322,-13.017273,-1.508951,12.262797,-4.999685,-7.263112,-4.795170,-4.122925,-16.884041,-16.963816,-16.736698,-16.813135,6
684512768,-11.487532,-13.014412,-1.526880,12.250972,-4.980326,-7.270646,-4.814434,-4.154634,-16.905785,-16.985369,-16.758251,-16.835117,6
684514765,-11.484671,-13.015795,-1.531124,12.250233,-4.976773,-7.273459,-4.822350,-4.168797,-16.917753,-16.997528,-16.769743,-16.849089,6
684516763,-11.485577,-13.014889,-1.529312,12.250233,-4.978132,-7.272100,-4.818916,-4.167604,-16.917658,-16.998196,-16.770411,-16.850424,6
684518761,-11.492729,-13.012028,-1.519299,12.252378,-4.986715,-7.265663,-4.806614,-4.151678,-16.908216,-16.988564,-16.760969,-16.838169,6
684520759,-11.517096,-13.022709,-1.505613,12.269902,-5.005741,-7.264161,-4.803514,-4.139042,-16.897249,-16.977501,-16.750383,-16.827393,6
684522757,-11.539125,-13.024282,-1.485157,12.281704,-5.026984,-7.254720,-4.780006,-4.104328,-16.873980,-16.953516,-16.726637,-16.802645,6
684524756,-11.556959,-13.023806,-1.466846,12.290382,-5.045056,-7.245326,-4.761982,-4.076242,-16.852427,-16.932392,-16.704035,-16.775656,6
684526753,-11.554098,-13.018894,-1.464796,12.286496,-5.044651,-7.241845,-4.750967,-4.061508,-16.843653,-16.923666,-16.693926,-16.755199,6
684528750,-11.538982,-13.015699,-1.476717,12.277341,-5.031133,-7.246208,-4.765606,-4.079199,-16.854191,-16.934347,-16.704988,-16.754246,6
684530748,-11.510515,-13.008738,-1.498222,12.259626,-5.006146,-7.253480,-4.781914,-4.109955,-16.875553,-16.955900,-16.726542,-16.762352,6
684532746,-11.493683,-13.008451,-1.514769,12.251067,-4.989457,-7.261610,-4.804564,-4.142809,-16.898966,-16.979265,-16.749573,-16.776276,6
684534744,-11.488247,-13.010931,-1.522684,12.249589,-4.982781,-7.266808,-4.813576,-4.157591,-16.911936,-16.991711,-16.762543,-16.799307,6
684536741,-11.490536,-13.013887,-1.523352,12.252212,-4.983592,-7.268620,-4.816961,-4.164314,-16.915607,-16.995478,-16.766405,-16.816425,6
684538739,-11.503410,-13.019371,-1.515961,12.261391,-4.993725,-7.267666,-4.814100,-4.156685,-16.909933,-16.989994,-16.761351,-16.821957,6
684540737,-11.525822,-13.026857,-1.501036,12.276340,-5.012393,-7.263947,-4.802084,-4.139137,-16.895533,-16.975498,-16.747189,-16.814518,6
684542735,-11.553955,-13.038826,-1.484871,12.296391,-5.034542,-7.261848,-4.786158,-4.114962,-16.876888,-16.956520,-16.728020,-16.800499,6
684544732,-11.578083,-13.045645,-1.467562,12.311864,-5.055261,-7.256603,-4.771423,-4.092503,-16.857481,-16.937113,-16.709423,-16.785717,6
684546730,-11.579895,-13.045120,-1.465225,12.312508,-5.057335,-7.255173,-4.762697,-4.080963,-16.850948,-16.930628,-16.703653,-16.781425,6
684548729,-11.556435,-13.030815,-1.474380,12.293625,-5.041027,-7.252598,-4.761744,-4.086637,-16.856480,-16.936350,-16.709852,-16.785192,6
684550726,-11.518812,-13.014174,-1.495361,12.266493,-5.011725,-7.254767,-4.773331,-4.110241,-16.875553,-16.955948,-16.727829,-16.794252,6
684552724,-11.497688,-13.012123,-1.514435,12.254906,-4.991627,-7.263279,-4.797935,-4.147339,-16.899872,-16.979933,-16.752529,-16.819525,6
684554721,-11.491966,-13.012171,-1.520205,12.252069,-4.985881,-7.266188,-4.808617,-4.161930,-16.913128,-16.992855,-16.766071,-16.836309,6
684556719,-11.497355,-13.015223,-1.517868,12.256289,-4.989743,-7.266545,-4.813290,-4.166079,-16.916323,-16.996908,-16.768980,-16.842651,6
684558717,-11.512566,-13.020229,-1.507664,12.266397,-5.002451,-7.263947,-4.807186,-4.156637,-16.910553,-16.990042,-16.762590,-16.839409,6
684560718,-11.531067,-13.022661,-1.491594,12.276864,-5.019736,-7.257128,-4.790878,-4.132080,-16.892815,-16.972399,-16.744661,-16.824150,6
684562715,-11.529875,-13.007879,-1.478004,12.268877,-5.025935,-7.242942,-4.703140,-4.037952,-16.849089,-16.928864,-16.696739,-16.741514,6
684564714,-11.521292,-12.996769,-1.475477,12.259030,-5.022907,-7.236123,-4.704571,-4.026985,-16.836119,-16.916561,-16.682482,-16.599751,6
684566712,-11.528349,-13.000584,-1.472235,12.264466,-5.028057,-7.236409,-4.749584,-4.064465,-16.846037,-16.926384,-16.693735,-16.570807,6
684568709,-11.511755,-12.993860,-1.482105,12.252808,-5.014825,-7.237983,-4.758596,-4.078817,-16.855097,-16.935396,-16.702271,-16.580439,6
684570707,-11.483526,-12.986612,-1.503086,12.235069,-4.990220,-7.244849,-4.780340,-4.111385,-16.878319,-16.958094,-16.726065,-16.588736,6
684572704,-11.459494,-12.983751,-1.524258,12.221622,-4.967618,-7.254004,-4.802656,-4.143333,-16.900492,-16.980028,-16.748190,-16.625452,6
684574702,-11.449432,-12.984371,-1.534939,12.216902,-4.957247,-7.259655,-4.814672,-4.164267,-16.913700,-16.993809,-16.761494,-16.664410,6
684576700,-11.449194,-12.985373,-1.536179,12.217283,-4.956508,-7.260776,-4.818773,-4.169083,-16.917562,-16.997528,-16.765594,-16.694117,6
684578698,-11.460543,-12.991047,-1.530504,12.225795,-4.965019,-7.260776,-4.815912,-4.161072,-16.912794,-16.992617,-16.761589,-16.714621,6
684580695,-11.480999,-13.000441,-1.519442,12.240720,-4.980779,-7.259941,-4.807758,-4.142857,-16.898918,-16.979313,-16.748285,-16.725826,6
684582693,-11.510801,-13.015556,-1.504755,12.263179,-5.003023,-7.260156,-4.796600,-4.117918,-16.878939,-16.959143,-16.728878,-16.730690,6
684584691,-11.532879,-13.023710,-1.490831,12.278295,-5.021024,-7.257271,-4.785681,-4.093599,-16.859722,-16.940165,-16.710997,-16.735744,6
684586689,-11.530018,-13.020372,-1.490355,12.275195,-5.019832,-7.255363,-4.778910,-4.084253,-16.853905,-16.933775,-16.705704,-16.743374,6
684588687,-11.510086,-13.007021,-1.496935,12.258554,-5.006576,-7.251978,-4.779959,-4.092026,-16.859484,-16.939211,-16.710854,-16.744661,6
684590684,-11.487579,-13.000393,-1.512814,12.243986,-4.987383,-7.256603,-4.801464,-4.125547,-16.882324,-16.961956,-16.733217,-16.758204,6
684592682,-11.467648,-12.997723,-1.530075,12.232685,-4.968786,-7.263899,-4.818153,-4.155350,-16.902542,-16.982031,-16.753721,-16.788721,6
684594680,-11.461592,-12.997389,-1.535797,12.229490,-4.962897,-7.266593,-4.825974,-4.169750,-16.914892,-16.993713,-16.765928,-16.813326,6
684596677,-11.463976,-12.999010,-1.535034,12.231493,-4.964471,-7.267022,-4.830122,-4.173756,-16.918135,-16.997385,-16.769457,-16.827393,6
684598675,-11.477327,-13.008261,-1.530933,12.242794,-4.973197,-7.269597,-4.827595,-4.164648,-16.913080,-16.992426,-16.765118,-16.829538,6
684600673,-11.501646,-13.016701,-1.515055,12.259173,-4.993296,-7.265878,-4.818487,-4.142857,-16.898394,-16.978884,-16.751146,-16.821194,6
684602671,-11.529732,-13.024282,-1.494551,12.277007,-5.017591,-7.259417,-4.802799,-4.113436,-16.877699,-16.957760,-16.730404,-16.804647,6
684604670,-11.553097,-13.031101,-1.478004,12.292099,-5.037546,-7.254553,-4.790401,-4.089737,-16.858768,-16.937733,-16.710997,-16.787767,6
684606667,-11.554909,-13.032913,-1.478004,12.293911,-5.038452,-7.255459,-4.784679,-4.081106,-16.851568,-16.930676,-16.703558,-16.782570,6
684608664,-11.539221,-13.026571,-1.487350,12.282896,-5.025935,-7.256961,-4.794455,-4.096794,-16.860962,-16.940165,-16.713238,-16.793871,6
684610663,-11.511087,-13.018465,-1.507378,12.264776,-5.001855,-7.262921,-4.808807,-4.124117,-16.881800,-16.961527,-16.734886,-16.816473,6
684612660,-11.479950,-13.001728,-1.521778,12.240839,-4.979086,-7.261753,-4.813004,-4.141140,-16.897535,-16.978121,-16.750383,-16.828632,6
684614658,-11.468744,-13.001919,-1.533175,12.235332,-4.967785,-7.267547,-4.827118,-4.160881,-16.911221,-16.991186,-16.763783,-16.840649,6
684616656,-11.474609,-13.006496,-1.531887,12.240553,-4.971361,-7.269192,-4.831886,-4.168177,-16.915464,-16.995859,-16.767836,-16.847801,6
684618654,-11.486387,-13.011122,-1.524734,12.248755,-4.980826,-7.267928,-4.828262,-4.160929,-16.912699,-16.992617,-16.764259,-16.846228,6
684620651,-11.508274,-13.020134,-1.511860,12.264204,-4.998207,-7.265997,-4.817486,-4.142857,-16.899204,-16.979027,-16.751862,-16.834831,6
684622649,-11.541748,-13.033962,-1.492214,12.287855,-5.024767,-7.263088,-4.804420,-4.117489,-16.880083,-16.959238,-16.732216,-16.816998,6
684624647,-11.563969,-13.039780,-1.475811,12.301874,-5.044079,-7.257795,-4.792356,-4.093218,-16.859150,-16.938686,-16.710806,-16.797590,6
684626647,-11.568117,-13.043118,-1.475000,12.305617,-5.046558,-7.259059,-4.785585,-4.082060,-16.850758,-16.931152,-16.703796,-16.790390,6
684628643,-11.546803,-13.033676,-1.486874,12.290239,-5.029964,-7.260275,-4.788160,-4.089594,-16.856146,-16.936159,-16.709566,-16.795111,6
684630641,-11.517000,-13.026094,-1.509094,12.271547,-5.003953,-7.267594,-4.809141,-4.123163,-16.879320,-16.959381,-16.731787,-16.816902,6
684632639,-11.492825,-13.020563,-1.527739,12.256694,-4.982543,-7.274151,-4.830122,-4.155779,-16.901493,-16.981316,-16.754246,-16.839838,6
684634636,-11.482191,-13.018084,-1.535892,12.250137,-4.973149,-7.276988,-4.836750,-4.172564,-16.913128,-16.993141,-16.766596,-16.852760,6
684636634,-11.488390,-13.022757,-1.534367,12.255573,-4.977012,-7.278562,-4.835081,-4.174566,-16.915655,-16.995621,-16.768265,-16.856050,6
684638632,-11.502123,-13.030577,-1.528454,12.266350,-4.986835,-7.279515,-4.831266,-4.164457,-16.909647,-16.989899,-16.762543,-16.851282,6
684640630,-11.522579,-13.039064,-1.516485,12.280822,-5.003047,-7.277775,-4.821825,-4.145908,-16.896248,-16.976404,-16.749716,-16.838646,6
684642628,-11.552858,-13.050175,-1.497316,12.301517,-5.027771,-7.273746,-4.809809,-4.119492,-16.877365,-16.957378,-16.730738,-16.820002,6
684644626,-11.574364,-13.057470,-1.483107,12.315917,-5.045629,-7.270288,-4.796076,-4.096317,-16.857815,-16.937542,-16.710854,-16.801071,6
684646623,-11.574745,-13.057947,-1.483202,12.316346,-5.045772,-7.270575,-4.789066,-4.086733,-16.850471,-16.930389,-16.702747,-16.793919,6
684648621,-11.557102,-13.052368,-1.495266,12.304735,-5.030918,-7.273817,-4.797697,-4.100990,-16.858912,-16.939354,-16.711521,-16.802740,6
684650623,-11.530352,-13.043690,-1.513338,12.287021,-5.008507,-7.278514,-4.813337,-4.128790,-16.881561,-16.961050,-16.733599,-16.825390,6
684652617,-11.501884,-13.032198,-1.530313,12.267041,-4.985785,-7.281256,-4.820490,-4.149246,-16.899252,-16.978693,-16.750813,-16.842079,6
684654615,-11.490297,-13.027906,-1.537609,12.259102,-4.976344,-7.282758,-4.828310,-4.161310,-16.909790,-16.989183,-16.761971,-16.851711,6
684656612,-11.498880,-13.032150,-1.533270,12.265515,-4.982805,-7.282710,-4.833269,-4.165888,-16.912174,-16.992331,-16.764498,-16.855192,6
684658610,-11.512470,-13.036442,-1.523972,12.274456,-4.994249,-7.280207,-4.828024,-4.158688,-16.906261,-16.986656,-16.758442,-16.850138,6
684660608,-11.528349,-13.039684,-1.511335,12.284017,-5.008507,-7.275510,-4.816055,-4.142141,-16.893339,-16.972494,-16.745758,-16.837263,6
684662607,-11.558199,-13.052702,-1.494503,12.305450,-5.031848,-7.273602,-4.803848,-4.119921,-16.874695,-16.954279,-16.727686,-16.819811,6
684664607,-11.577702,-13.057899,-1.480198,12.317801,-5.048752,-7.269049,-4.783535,-4.088926,-16.852474,-16.933012,-16.705132,-16.797733,6
684666605,-11.546183,-13.031626,-1.485443,12.288904,-5.030370,-7.258534,-4.700136,-4.009342,-16.821814,-16.902781,-16.670895,-16.749668,6
684668602,-11.502790,-13.007402,-1.504612,12.255096,-4.999089,-7.256007,-4.738712,-4.051304,-16.842508,-16.923046,-16.691780,-16.749239,6
684670600,-11.468601,-12.994385,-1.525784,12.231493,-4.971409,-7.260084,-4.790831,-4.113579,-16.873789,-16.953182,-16.724539,-16.775465,6
684672598,-11.451769,-12.994671,-1.542902,12.223220,-4.954433,-7.268786,-4.812622,-4.146862,-16.895008,-16.974640,-16.746473,-16.796064,6
684674595,-11.447239,-12.997818,-1.550579,12.222528,-4.948330,-7.274199,-4.821825,-4.164839,-16.907835,-16.987228,-16.759348,-16.816425,6
684676593,-11.449289,-12.998915,-1.549625,12.224102,-4.949832,-7.274270,-4.824114,-4.168701,-16.910982,-16.989803,-16.762209,-16.826487,6
684678591,-11.460733,-13.002825,-1.542091,12.231779,-4.959321,-7.272458,-4.819918,-4.159975,-16.905832,-16.985369,-16.757774,-16.826963,6
684680589,-11.476755,-13.002777,-1.526022,12.239766,-4.975367,-7.264400,-4.800844,-4.134750,-16.888809,-16.968536,-16.739893,-16.809845,6
684682587,-11.502123,-13.010311,-1.508188,12.256217,-4.996967,-7.259250,-4.791641,-4.114199,-16.871595,-16.951323,-16.722822,-16.789293,6
684684586,-11.527109,-13.019228,-1.492119,12.273169,-5.017495,-7.255673,-4.784250,-4.094410,-16.856146,-16.935539,-16.707754,-16.777182,6
684686583,-11.526537,-13.015938,-1.489401,12.271237,-5.018568,-7.252669,-4.769278,-4.076910,-16.846037,-16.925430,-16.697407,-16.763973,6
684688580,-11.507702,-13.008070,-1.500368,12.257886,-5.003667,-7.254219,-4.777431,-4.087877,-16.852856,-16.932678,-16.703939,-16.762352,6
684690578,-11.484957,-13.003922,-1.518965,12.244439,-4.982996,-7.261443,-4.799938,-4.119778,-16.874123,-16.953802,-16.725349,-16.776276,6
684692576,-11.466074,-13.000441,-1.534367,12.233257,-4.965854,-7.267404,-4.815531,-4.148293,-16.894531,-16.974592,-16.746044,-16.800451,6
684694574,-11.460733,-13.000202,-1.539469,12.230468,-4.960632,-7.269835,-4.820538,-4.163551,-16.906071,-16.986227,-16.757822,-16.819048,6
684696572,-11.465406,-13.000870,-1.535463,12.233138,-4.964972,-7.268167,-4.817343,-4.164171,-16.907597,-16.987801,-16.759586,-16.826153,6
684698569,-11.474943,-13.001823,-1.526880,12.238383,-4.974031,-7.264352,-4.805040,-4.148674,-16.899204,-16.979027,-16.750860,-16.815567,6
684700567,-11.495876,-13.013077,-1.517200,12.254477,-4.989338,-7.265139,-4.806089,-4.137945,-16.889048,-16.968775,-16.740656,-16.805458,6
684702565,-11.520863,-13.023901,-1.503038,12.272382,-5.008912,-7.263470,-4.794216,-4.112816,-16.871548,-16.951132,-16.723442,-16.793489,6
684704564,-11.536455,-13.021994,-1.485538,12.279224,-5.025458,-7.253766,-4.773617,-4.081583,-16.849756,-16.929817,-16.701651,-16.770506,6
684706561,-11.539030,-13.021708,-1.482677,12.280369,-5.028176,-7.252192,-4.774570,-4.077864,-16.844463,-16.924524,-16.697121,-16.763306,6
684708558,-11.527824,-13.021088,-1.493263,12.274456,-5.017281,-7.257175,-4.788494,-4.096031,-16.854715,-16.935062,-16.707373,-16.775560,6
684710556,-11.497736,-13.011169,-1.513433,12.254453,-4.992151,-7.262301,-4.796696,-4.117680,-16.871405,-16.952181,-16.723251,-16.787243,6
684712554,-11.475611,-13.008356,-1.532745,12.241983,-4.971433,-7.270551,-4.818535,-4.151726,-16.893339,-16.973782,-16.744995,-16.803598,6
684714552,-11.470604,-13.010454,-1.539850,12.240529,-4.965377,-7.275152,-4.829836,-4.169750,-16.907692,-16.987371,-16.759682,-16.823053,6
684716549,-11.473846,-13.015270,-1.541424,12.244558,-4.966211,-7.278347,-4.831505,-4.175997,-16.912031,-16.992331,-16.764736,-16.832542,6
684718547,-11.489105,-13.024235,-1.535130,12.256670,-4.976988,-7.279682,-4.826355,-4.168224,-16.908360,-16.987896,-16.760302,-16.831923,6
684720545,-11.508274,-13.031530,-1.523256,12.269902,-4.992509,-7.277393,-4.815960,-4.151535,-16.894579,-16.974640,-16.747046,-16.822863,6
684722542,-11.537266,-13.039112,-1.501846,12.288189,-5.017710,-7.270479,-4.799557,-4.123735,-16.873932,-16.954517,-16.726732,-16.805744,6
684724541,-11.560392,-13.046789,-1.486397,12.303591,-5.036998,-7.266593,-4.788256,-4.101276,-16.855764,-16.935682,-16.708136,-16.789055,6
684726538,-11.562538,-13.047314,-1.484776,12.304926,-5.038881,-7.266045,-4.782963,-4.093266,-16.848755,-16.928434,-16.701031,-16.782093,6
684728536,-11.540699,-13.035965,-1.495266,12.288332,-5.022717,-7.265615,-4.784727,-4.100180,-16.853857,-16.933632,-16.706705,-16.785336,6
684730534,-11.511755,-13.026762,-1.515007,12.269258,-4.998374,-7.270885,-4.804611,-4.130363,-16.875267,-16.955614,-16.728115,-16.806936,6
684732531,-11.489820,-13.020706,-1.530886,12.255263,-4.979467,-7.275796,-4.818678,-4.156780,-16.896009,-16.975927,-16.748095,-16.828775,6
684734529,-11.480570,-13.018179,-1.537609,12.249374,-4.971480,-7.277894,-4.826975,-4.171085,-16.907835,-16.988373,-16.760159,-16.842699,6
684736527,-11.477757,-13.018084,-1.540327,12.247920,-4.968715,-7.279205,-4.830599,-4.175615,-16.911316,-16.991663,-16.763544,-16.847229,6
684738525,-11.488771,-13.022804,-1.534033,12.255788,-4.977369,-7.278419,-4.824686,-4.168367,-16.907024,-16.986561,-16.759014,-16.843653,6
684740522,-11.510038,-13.031387,-1.521349,12.270713,-4.994345,-7.276368,-4.815531,-4.152107,-16.894674,-16.974401,-16.747236,-16.832447,6
684742520,-11.535501,-13.042068,-1.506567,12.288785,-5.014467,-7.274318,-4.803514,-4.127836,-16.876268,-16.956568,-16.729164,-16.815853,6
684744519,-11.555576,-13.047504,-1.491928,12.301540,-5.031824,-7.269716,-4.792881,-4.104948,-16.857529,-16.937542,-16.710663,-16.798782,6
684746516,-11.558485,-13.044310,-1.485825,12.301397,-5.036330,-7.265067,-4.782867,-4.093313,-16.850567,-16.929674,-16.702271,-16.791391,6
684748514,-11.537552,-13.029528,-1.491976,12.283540,-5.022788,-7.260752,-4.782152,-4.098415,-16.856241,-16.935539,-16.707373,-16.794491,6
684750511,-11.511421,-13.022375,-1.510954,12.266898,-5.000234,-7.266665,-4.804564,-4.128981,-16.878223,-16.958046,-16.729689,-16.816711,6
684752509,-11.492777,-13.017893,-1.525116,12.255335,-4.983830,-7.271504,-4.821682,-4.157019,-16.898251,-16.977978,-16.749954,-16.837454,6
684754507,-11.485004,-13.016891,-1.531887,12.250948,-4.976559,-7.274389,-4.830885,-4.170609,-16.908932,-16.988802,-16.760731,-16.849279,6
684756505,-11.488056,-13.019180,-1.531124,12.253618,-4.978466,-7.275152,-4.833508,-4.172373,-16.911840,-16.991758,-16.764355,-16.852713,6
684758502,-11.498499,-13.025475,-1.526976,12.261987,-4.985762,-7.276225,-4.829502,-4.165649,-16.907454,-16.987181,-16.759968,-16.849041,6
684760500,-11.516333,-13.031769,-1.515436,12.274051,-5.000448,-7.273602,-4.822111,-4.149961,-16.894865,-16.974688,-16.747427,-16.837215,6
684762498,-11.543369,-13.040781,-1.497412,12.292075,-5.022979,-7.269096,-4.810190,-4.126263,-16.876173,-16.956472,-16.729164,-16.819811,6
684764498,-11.565876,-13.045502,-1.479626,12.305689,-5.043125,-7.262564,-4.796743,-4.103470,-16.857481,-16.937399,-16.710138,-16.801453,6
684766496,-11.558628,-13.035822,-1.477194,12.297225,-5.040717,-7.256508,-4.754782,-4.061604,-16.838646,-16.918373,-16.689587,-16.776991,6
684768494,-11.506701,-13.000202,-1.493502,12.253451,-5.006599,-7.246852,-4.704428,-4.019880,-16.828871,-16.909122,-16.676712,-16.734552,6
684770492,-11.471319,-12.985897,-1.514578,12.228608,-4.978371,-7.250237,-4.790974,-4.109144,-16.873074,-16.953182,-16.723585,-16.761112,6
684772489,-11.452818,-12.981462,-1.528645,12.217140,-4.962087,-7.255054,-4.816294,-4.146576,-16.897011,-16.976976,-16.748476,-16.793442,6
684774487,-11.450481,-12.985563,-1.535082,12.218022,-4.957700,-7.260323,-4.823685,-4.160261,-16.908932,-16.988897,-16.760397,-16.815186,6
684776485,-11.453009,-12.984037,-1.531029,12.218523,-4.960990,-7.257533,-4.818916,-4.156303,-16.909456,-16.988993,-16.760349,-16.817045,6
684778482,-11.467409,-12.990379,-1.522970,12.228894,-4.972219,-7.256675,-4.819393,-4.151392,-16.906309,-16.986036,-16.758013,-16.809034,6
684780480,-11.487484,-13.000059,-1.512575,12.243772,-4.987454,-7.256317,-4.807901,-4.133797,-16.895342,-16.974783,-16.746855,-16.803789,6
684782478,-11.506557,-13.002586,-1.496029,12.254572,-5.005264,-7.249308,-4.783869,-4.098845,-16.872311,-16.951656,-16.722965,-16.774845,6
684784477,-11.525536,-13.004637,-1.479101,12.265086,-5.023217,-7.241869,-4.772234,-4.072428,-16.851473,-16.931152,-16.702271,-16.726160,6
684786476,-11.537504,-13.015699,-1.478195,12.276602,-5.029655,-7.246947,-4.777622,-4.074097,-16.846991,-16.927671,-16.697359,-16.712952,6
684788471,-11.524963,-13.012123,-1.487160,12.268543,-5.018902,-7.249641,-4.781580,-4.084158,-16.852427,-16.933060,-16.703463,-16.721535,6
684790468,-11.502361,-13.007927,-1.505566,12.255144,-4.998398,-7.256746,-4.799700,-4.112291,-16.874027,-16.953897,-16.724300,-16.725969,6
684792466,-11.482430,-13.006830,-1.524401,12.244630,-4.979014,-7.265615,-4.820776,-4.144526,-16.896820,-16.976166,-16.746473,-16.751385,6
684794463,-11.473703,-13.010216,-1.536512,12.241960,-4.968596,-7.273364,-4.830980,-4.163265,-16.910028,-16.989517,-16.760397,-16.782570,6
684796461,-11.472940,-13.008785,-1.535845,12.240863,-4.968548,-7.272315,-4.831600,-4.165125,-16.913223,-16.992187,-16.763306,-16.801071,6
684798459,-11.483860,-13.011265,-1.527405,12.247562,-4.978228,-7.269335,-4.826355,-4.156208,-16.908169,-16.987371,-16.758919,-16.809034,6
684800456,-11.501312,-13.015938,-1.514626,12.258625,-4.993343,-7.265282,-4.814672,-4.136896,-16.895008,-16.975117,-16.746283,-16.806555,6
684802454,-11.528444,-13.024807,-1.496363,12.276626,-5.016041,-7.260585,-4.800224,-4.115248,-16.876698,-16.955996,-16.728115,-16.795540,6
684804453,-11.553526,-13.032532,-1.479006,12.293029,-5.037260,-7.255769,-4.787254,-4.090834,-16.857910,-16.936874,-16.709661,-16.781664,6
684806449,-11.558008,-13.033485,-1.475477,12.295747,-5.041265,-7.254481,-4.777718,-4.079676,-16.850567,-16.929960,-16.702366,-16.777515,6
684808447,-11.542463,-13.029337,-1.486874,12.285900,-5.027795,-7.258105,-4.784870,-4.093361,-16.858339,-16.938019,-16.710091,-16.786575,6
684810444,-11.511183,-13.019848,-1.508665,12.265515,-5.001259,-7.264256,-4.796362,-4.119253,-16.877842,-16.957092,-16.729784,-16.807079,6
684812442,-11.480045,-13.009167,-1.529121,12.244606,-4.975462,-7.269144,-4.809332,-4.144907,-16.898012,-16.977882,-16.750050,-16.824293,6
684814440,-11.471272,-13.011694,-1.540422,12.241483,-4.965425,-7.276058,-4.823446,-4.164410,-16.913128,-16.993809,-16.765976,-16.840649,6
684816437,-11.472321,-13.014698,-1.542377,12.243509,-4.964972,-7.278538,-4.826736,-4.168653,-16.917181,-16.997385,-16.769695,-16.846848,6
684818435,-11.485052,-13.020134,-1.535082,12.252593,-4.974985,-7.277608,-4.823399,-4.160786,-16.912413,-16.992283,-16.765118,-16.844320,6
684820432,-11.503267,-13.028669,-1.525402,12.265968,-4.988933,-7.277036,-4.815531,-4.145193,-16.900301,-16.979647,-16.752195,-16.834450,6
684822430,-11.528254,-13.039207,-1.510954,12.283731,-5.008650,-7.275081,-4.801702,-4.121304,-16.881990,-16.961527,-16.733789,-16.817904,6
684824428,-11.549950,-13.044596,-1.494646,12.297273,-5.027652,-7.269621,-4.786921,-4.094791,-16.862392,-16.942263,-16.714764,-16.800213,6
684826428,-11.552382,-13.045168,-1.492786,12.298775,-5.029798,-7.268977,-4.778624,-4.084063,-16.854715,-16.934824,-16.706514,-16.792774,6
684828423,-11.535120,-13.037062,-1.501942,12.286091,-5.016589,-7.269502,-4.782248,-4.092550,-16.860437,-16.940689,-16.712713,-16.798496,6
684830421,-11.505270,-13.028240,-1.522970,12.266755,-4.991150,-7.275605,-4.799604,-4.122829,-16.881275,-16.961002,-16.733932,-16.817760,6
684832418,-11.481380,-13.021755,-1.540375,12.251568,-4.970503,-7.281065,-4.821110,-4.156303,-16.903400,-16.983604,-16.756296,-16.840887,6
684834416,-11.471462,-13.020754,-1.549292,12.246108,-4.961085,-7.285023,-4.829836,-4.172277,-16.915894,-16.995955,-16.768980,-16.855001,6
684836414,-11.473751,-13.021326,-1.547575,12.247539,-4.963088,-7.284451,-4.829073,-4.176617,-16.920042,-16.999531,-16.772127,-16.859102,6
684838411,-11.484432,-13.025951,-1.541519,12.255192,-4.971457,-7.283735,-4.824448,-4.170656,-16.916227,-16.996193,-16.768265,-16.856146,6
684840409,-11.503172,-13.031054,-1.527882,12.267113,-4.987645,-7.279468,-4.814100,-4.151821,-16.903257,-16.984224,-16.755962,-16.844130,6
684842406,-11.531687,-13.040638,-1.508951,12.286162,-5.011368,-7.274795,-4.800415,-4.127789,-16.884851,-16.965103,-16.737890,-16.827059,6
684844405,-11.556482,-13.047791,-1.491308,12.302136,-5.032587,-7.269549,-4.788589,-4.104090,-16.866541,-16.946793,-16.719198,-16.808701,6
684846403,-11.559725,-13.046503,-1.486778,12.303114,-5.036473,-7.266641,-4.780722,-4.092026,-16.858625,-16.939354,-16.711807,-16.801691,6
684848400,-11.538601,-13.032961,-1.494360,12.285781,-5.022120,-7.263660,-4.780722,-4.096603,-16.862583,-16.943073,-16.716194,-16.804934,6
684850397,-11.510468,-13.024473,-1.514006,12.267470,-4.998231,-7.269239,-4.800034,-4.127645,-16.883421,-16.963577,-16.736841,-16.824722,6
684852395,-11.489105,-13.020563,-1.531458,12.254834,-4.978824,-7.276011,-4.818487,-4.157305,-16.904736,-16.984320,-16.757441,-16.846514,6
684854392,-11.479664,-13.019991,-1.540327,12.249827,-4.969668,-7.280159,-4.828262,-4.172516,-16.917896,-16.997194,-16.769838,-16.859865,6
684856390,-11.483526,-13.019800,-1.536274,12.251663,-4.973626,-7.278037,-4.829836,-4.175758,-16.920424,-16.999531,-16.772938,-16.863537,6
684858388,-11.495399,-13.024855,-1.529455,12.260127,-4.982972,-7.277155,-4.826164,-4.169369,-16.915798,-16.995573,-16.768980,-16.859722,6
684860385,-11.515617,-13.032484,-1.516867,12.274051,-4.999375,-7.274675,-4.818106,-4.153204,-16.904163,-16.983128,-16.757250,-16.848278,6
684862383,-11.542654,-13.045406,-1.502752,12.294030,-5.019951,-7.274079,-4.807281,-4.129601,-16.886234,-16.965866,-16.739416,-16.831064,6
684864381,-11.562443,-13.051891,-1.489449,12.307167,-5.036497,-7.270670,-4.794407,-4.106569,-16.866779,-16.947317,-16.720200,-16.812134,6
684866378,-11.565781,-13.050938,-1.485157,12.308359,-5.040312,-7.268047,-4.784775,-4.096174,-16.858673,-16.938639,-16.711330,-16.803551,6
684868379,-11.551905,-13.045835,-1.493931,12.298870,-5.028987,-7.269883,-4.784393,-4.103184,-16.863298,-16.943645,-16.716003,-16.807890,6
684870376,-11.499929,-13.013792,-1.513863,12.256861,-4.993033,-7.263827,-4.723501,-4.061270,-16.859245,-16.940403,-16.708088,-16.788578,6
684872374,-11.447334,-12.989235,-1.541901,12.218285,-4.952717,-7.265568,-4.761600,-4.106379,-16.888285,-16.968632,-16.738272,-16.799164,6
684874371,-11.439419,-12.987757,-1.548338,12.213588,-4.945540,-7.268047,-4.816103,-4.164028,-16.915321,-16.994953,-16.767550,-16.830587,6
684876369,-11.442518,-12.989569,-1.547050,12.216043,-4.947734,-7.268310,-4.819584,-4.169798,-16.920042,-17.000103,-16.772079,-16.840267,6
684878367,-11.454296,-12.992477,-1.538181,12.223387,-4.958057,-7.265329,-4.813766,-4.160738,-16.915989,-16.996336,-16.767883,-16.838646,6
684880365,-11.477137,-12.998676,-1.521540,12.237906,-4.977798,-7.260108,-4.803658,-4.142904,-16.902781,-16.982508,-16.754103,-16.823101,6
684882363,-11.509466,-13.014555,-1.505089,12.262011,-5.002189,-7.259822,-4.797029,-4.125214,-16.886473,-16.966963,-16.738844,-16.810226,6
684884362,-11.533976,-13.027620,-1.493645,12.280798,-5.020165,-7.260633,-4.789209,-4.105663,-16.867256,-16.948509,-16.720200,-16.795635,6
684886359,-11.542892,-13.031626,-1.488733,12.287259,-5.027080,-7.260180,-4.780149,-4.095173,-16.859293,-16.939211,-16.712570,-16.789293,6
684888356,-11.535168,-13.030720,-1.495552,12.282944,-5.019808,-7.263136,-4.789448,-4.108095,-16.866779,-16.946840,-16.719055,-16.797400,6
684890354,-11.509800,-13.020563,-1.510763,12.265182,-4.999518,-7.265663,-4.800892,-4.130507,-16.884899,-16.964626,-16.736221,-16.813087,6
684892352,-11.485529,-13.015938,-1.530409,12.250733,-4.977560,-7.273173,-4.820395,-4.162359,-16.906452,-16.985941,-16.758108,-16.833591,6
684894350,-11.478996,-13.018799,-1.539803,12.248898,-4.969597,-7.279301,-4.832172,-4.181004,-16.919327,-16.999054,-16.771460,-16.849136,6
684896347,-11.481810,-13.020372,-1.538563,12.251091,-4.971623,-7.279468,-4.834223,-4.185152,-16.922617,-17.002201,-16.774750,-16.854572,6
684898345,-11.493015,-13.025141,-1.532125,12.259078,-4.980445,-7.278633,-4.831266,-4.179049,-16.918993,-16.998625,-16.771126,-16.852570,6
684900343,-11.513901,-13.033485,-1.519585,12.273693,-4.997158,-7.276535,-4.822969,-4.161215,-16.906881,-16.986322,-16.759491,-16.842270,6
684902341,-11.541939,-13.043547,-1.501608,12.292743,-5.020165,-7.272577,-4.811192,-4.135513,-16.889143,-16.968870,-16.741467,-16.826677,6
684904340,-11.565971,-13.052273,-1.486301,12.309122,-5.039835,-7.269287,-4.798460,-4.111624,-16.870213,-16.950130,-16.723061,-16.809607,6
684906337,-11.575031,-13.055849,-1.480818,12.315440,-5.047107,-7.268333,-4.791355,-4.099941,-16.862440,-16.942358,-16.715002,-16.801167,6
684908335,-11.561966,-13.051367,-1.489401,12.306666,-5.036283,-7.270384,-4.797792,-4.108906,-16.869116,-16.949034,-16.721916,-16.808701,6
684910333,-11.533260,-13.043213,-1.509953,12.288237,-5.011654,-7.276583,-4.812145,-4.135132,-16.890383,-16.969156,-16.742611,-16.830063,6
684912330,-11.508179,-13.034439,-1.526260,12.271309,-4.990959,-7.280350,-4.825926,-4.160309,-16.909885,-16.989803,-16.762304,-16.850138,6
684914328,-11.495352,-13.030195,-1.534843,12.262774,-4.980254,-7.282519,-4.830647,-4.172373,-16.919947,-17.000437,-16.772890,-16.861868,6
684916326,-11.488771,-13.022566,-1.533794,12.255669,-4.977489,-7.278180,-4.823065,-4.166603,-16.919136,-16.998529,-16.771555,-16.859102,6
684918324,-11.502266,-13.030481,-1.528215,12.266374,-4.987025,-7.279348,-4.823637,-4.163122,-16.916990,-16.996241,-16.769457,-16.856003,6
684920321,-11.520958,-13.039160,-1.518202,12.280059,-5.001378,-7.278681,-4.815435,-4.147816,-16.905499,-16.984892,-16.758251,-16.846037,6
684922319,-11.544180,-13.047457,-1.503277,12.295818,-5.020452,-7.275367,-4.802895,-4.126167,-16.888189,-16.967392,-16.740656,-16.830397,6
684924318,-11.563921,-13.052750,-1.488829,12.308335,-5.037546,-7.270789,-4.789257,-4.100037,-16.869211,-16.948175,-16.721439,-16.812325,6
684926315,-11.567783,-13.053894,-1.486111,12.310839,-5.040836,-7.270002,-4.780054,-4.087305,-16.860676,-16.940498,-16.712475,-16.803360,6
684928314,-11.551714,-13.049030,-1.497316,12.300372,-5.027199,-7.273173,-4.787159,-4.097462,-16.866112,-16.946411,-16.718960,-16.809559,6
684930311,-11.521769,-13.036108,-1.514339,12.278938,-5.003715,-7.275224,-4.797173,-4.118061,-16.882658,-16.962671,-16.736221,-16.824532,6
684932309,-11.495447,-13.029861,-1.534414,12.262654,-4.980516,-7.282138,-4.816532,-4.149866,-16.903925,-16.984558,-16.758347,-16.845942,6
684934307,-11.486483,-13.031721,-1.545238,12.259102,-4.970622,-7.288480,-4.827690,-4.166508,-16.917610,-16.997910,-16.770887,-16.860437,6
684936307,-11.487341,-13.033819,-1.546478,12.260580,-4.970431,-7.290149,-4.831028,-4.171801,-16.921806,-17.001247,-16.774035,-16.864872,6
684938302,-11.499214,-13.040352,-1.541138,12.269783,-4.979038,-7.290745,-4.826498,-4.165268,-16.918230,-16.997766,-16.770411,-16.861486,6
684940300,-11.514950,-13.043642,-1.528692,12.279296,-4.993129,-7.286167,-4.818439,-4.149866,-16.906691,-16.985989,-16.759253,-16.850185,6
684942298,-11.539078,-13.048458,-1.509380,12.293768,-5.014849,-7.278919,-4.805660,-4.126835,-16.890240,-16.969681,-16.742516,-16.834164,6
684944296,-11.561108,-13.053846,-1.492739,12.307477,-5.034184,-7.273293,-4.790115,-4.101372,-16.871166,-16.951275,-16.723490,-16.815758,6
684946293,-11.564827,-13.054705,-1.489878,12.309766,-5.037475,-7.272291,-4.781675,-4.090261,-16.862249,-16.942978,-16.715002,-16.807413,6
684948291,-11.549282,-13.047981,-1.498699,12.298632,-5.025291,-7.273340,-4.789400,-4.100752,-16.867924,-16.948080,-16.720438,-16.813135,6
684950289,-11.523008,-13.041067,-1.518059,12.282038,-5.002475,-7.279563,-4.803848,-4.126883,-16.886091,-16.965103,-16.739130,-16.831207,6
684952287,-11.495543,-13.029861,-1.534319,12.262702,-4.980612,-7.282090,-4.814339,-4.148388,-16.904116,-16.982746,-16.755772,-16.847897,6
684954285,-11.481237,-13.028383,-1.547146,12.254810,-4.967046,-7.287765,-4.825354,-4.164553,-16.916132,-16.995144,-16.767836,-16.859865,6
684956282,-11.487341,-13.034439,-1.547098,12.260890,-4.970121,-7.290769,-4.831028,-4.173183,-16.921186,-17.000437,-16.774178,-16.865826,6
684958280,-11.500740,-13.040829,-1.540089,12.270784,-4.980326,-7.290459,-4.829597,-4.168463,-16.917706,-16.996861,-16.770697,-16.863155,6
684960278,-11.519051,-13.046932,-1.527882,12.282991,-4.995584,-7.287407,-4.820585,-4.152966,-16.905689,-16.985464,-16.759109,-16.851568,6
684962276,-11.544418,-13.053465,-1.509047,12.298942,-5.017686,-7.281256,-4.805279,-4.126740,-16.888285,-16.968060,-16.740799,-16.833496,6
684964274,-11.565399,-13.056850,-1.491451,12.311125,-5.036974,-7.274151,-4.790306,-4.101133,-16.869116,-16.948509,-16.721439,-16.814518,6
684966271,-11.573744,-13.058901,-1.485157,12.316322,-5.044293,-7.272029,-4.780674,-4.090023,-16.860199,-16.939211,-16.711998,-16.804790,6
684968269,-11.564350,-13.058186,-1.493835,12.311268,-5.035257,-7.276011,-4.789066,-4.102564,-16.866016,-16.945696,-16.718435,-16.812372,6
684970271,-11.538076,-13.048029,-1.509953,12.293053,-5.014062,-7.278991,-4.795694,-4.123831,-16.881752,-16.961479,-16.734648,-16.827631,6
684972267,-11.475039,-13.006735,-1.531696,12.240887,-4.971671,-7.269216,-4.732466,-4.079390,-16.874886,-16.955137,-16.725349,-16.805792,6
684974265,-11.439514,-12.991381,-1.551867,12.215447,-4.943824,-7.271624,-4.772282,-4.119205,-16.899586,-16.979980,-16.750908,-16.813087,6
684976264,-11.442995,-12.997150,-1.554155,12.220073,-4.944420,-7.275653,-4.822922,-4.164124,-16.920614,-16.999769,-16.772366,-16.837406,6
684978261,-11.454678,-13.004780,-1.550102,12.229729,-4.952288,-7.277441,-4.823494,-4.160452,-16.918278,-16.997337,-16.769743,-16.840839,6
684980258,-11.474705,-13.012218,-1.537514,12.243462,-4.968596,-7.274866,-4.817343,-4.146290,-16.906548,-16.985750,-16.758490,-16.833305,6
684982256,-11.505365,-13.022900,-1.517534,12.264132,-4.993916,-7.270217,-4.804659,-4.121971,-16.887951,-16.967630,-16.740131,-16.818047,6
684984256,-11.529064,-13.029242,-1.500177,12.279153,-5.014443,-7.264709,-4.790974,-4.097605,-16.868305,-16.947842,-16.720057,-16.801167,6
684986253,-11.536980,-13.032532,-1.495552,12.284756,-5.020714,-7.264042,-4.781103,-4.086304,-16.859102,-16.938877,-16.709995,-16.791439,6
684988250,-11.523294,-13.028383,-1.505089,12.275839,-5.009103,-7.266736,-4.784679,-4.093742,-16.862535,-16.942215,-16.714001,-16.792583,6
684990248,-11.501646,-13.024092,-1.522446,12.262869,-4.989600,-7.273269,-4.805613,-4.123926,-16.883039,-16.962957,-16.735125,-16.813517,6
684992246,-11.477184,-13.017845,-1.540661,12.247515,-4.968262,-7.279253,-4.821348,-4.152632,-16.903639,-16.984320,-16.756105,-16.836119,6
684994243,-11.466217,-13.014650,-1.548433,12.240434,-4.958892,-7.281542,-4.828262,-4.169226,-16.916847,-16.996813,-16.769218,-16.851234,6
684996241,-11.464071,-13.014698,-1.550627,12.239385,-4.956722,-7.282662,-4.828215,-4.171801,-16.920900,-17.000914,-16.773987,-16.856480,6
684998239,-11.474037,-13.020563,-1.546526,12.247300,-4.963756,-7.283545,-4.824877,-4.164505,-16.917372,-16.997671,-16.770649,-16.854334,6
685000237,-11.491823,-13.026667,-1.534843,12.259245,-4.978490,-7.280755,-4.818535,-4.148388,-16.905975,-16.986418,-16.759586,-16.845083,6
685002234,-11.519146,-13.034105,-1.514959,12.276626,-5.002093,-7.274532,-4.806089,-4.125214,-16.888857,-16.968393,-16.742468,-16.828918,6
685004233,-11.542273,-13.040257,-1.497984,12.291265,-5.022144,-7.269120,-4.789686,-4.099417,-16.868401,-16.947508,-16.720676,-16.809034,6
685006230,-11.550140,-13.043690,-1.493549,12.296915,-5.028296,-7.268620,-4.780960,-4.087830,-16.859293,-16.938543,-16.710567,-16.799402,6
685008228,-11.541796,-13.041210,-1.499414,12.291503,-5.021191,-7.270312,-4.789734,-4.098749,-16.865540,-16.945839,-16.718197,-16.807079,6
685010227,-11.518574,-13.034534,-1.515961,12.276554,-5.001307,-7.275248,-4.805756,-4.124212,-16.884804,-16.965246,-16.737413,-16.826820,6
685012224,-11.495352,-13.028002,-1.532650,12.261677,-4.981351,-7.280326,-4.821396,-4.154062,-16.905212,-16.985130,-16.757822,-16.848135,6
685014223,-11.486959,-13.026285,-1.539326,12.256622,-4.973817,-7.282805,-4.830408,-4.170084,-16.917181,-16.996431,-16.769981,-16.859722,6
685016219,-11.480045,-13.021994,-1.541948,12.251019,-4.969049,-7.281971,-4.825783,-4.168987,-16.918755,-16.998386,-16.770935,-16.860533,6
685018217,-11.489344,-13.026857,-1.537514,12.258101,-4.975915,-7.282186,-4.824400,-4.164457,-16.916275,-16.995716,-16.767693,-16.857719,6
685020216,-11.510706,-13.035345,-1.524639,12.273026,-4.993033,-7.279992,-4.819536,-4.150200,-16.905403,-16.984749,-16.757631,-16.847610,6
685022216,-11.540174,-13.045025,-1.504850,12.292600,-5.017662,-7.274938,-4.806709,-4.126501,-16.887760,-16.967678,-16.740370,-16.830873,6
685024216,-11.566925,-13.054037,-1.487112,12.310481,-5.039907,-7.270575,-4.791927,-4.100323,-16.867113,-16.947365,-16.719770,-16.810942,6
685026216,-11.569548,-13.052225,-1.482677,12.310886,-5.043435,-7.267451,-4.782391,-4.084826,-16.857100,-16.936636,-16.709566,-16.800404,6
685028207,-11.554098,-13.043261,-1.489162,12.298679,-5.032468,-7.266212,-4.784966,-4.091883,-16.860723,-16.940117,-16.713142,-16.803265,6
685030204,-11.526155,-13.035393,-1.509237,12.280774,-5.008459,-7.272315,-4.796124,-4.116344,-16.877460,-16.957617,-16.730022,-16.819572,6
685032202,-11.504984,-13.036442,-1.531458,12.270713,-4.986763,-7.283950,-4.818249,-4.153538,-16.901302,-16.981077,-16.753531,-16.844034,6
685034199,-11.496449,-13.035774,-1.539326,12.266111,-4.978561,-7.287550,-4.828548,-4.173088,-16.915369,-16.994524,-16.767788,-16.857767,6
685036197,-11.498737,-13.037014,-1.538277,12.267876,-4.980230,-7.287645,-4.830217,-4.177761,-16.919565,-16.999340,-16.771889,-16.863060,6
685038195,-11.509180,-13.039970,-1.530790,12.274575,-4.989195,-7.285380,-4.827213,-4.172850,-16.917181,-16.997147,-16.769314,-16.861010,6
685040193,-11.523628,-13.042259,-1.518631,12.282944,-5.002499,-7.280445,-4.817104,-4.157877,-16.906834,-16.986227,-16.758537,-16.850901,6
685042190,-11.549759,-13.050508,-1.500750,12.300134,-5.024505,-7.275629,-4.801321,-4.133415,-16.889477,-16.968679,-16.741467,-16.834068,6
685044188,-11.574602,-13.058758,-1.484156,12.316680,-5.045223,-7.271457,-4.785490,-4.110098,-16.868448,-16.947794,-16.721392,-16.813612,6
685046186,-11.584568,-13.060760,-1.476192,12.322664,-5.054188,-7.268476,-4.778671,-4.097748,-16.857004,-16.936731,-16.709661,-16.801453,6
685048184,-11.573887,-13.056898,-1.483011,12.315392,-5.045438,-7.269955,-4.788113,-4.107428,-16.861105,-16.940784,-16.714621,-16.805983,6
685050182,-11.549044,-13.049412,-1.500368,12.299228,-5.024338,-7.274890,-4.802561,-4.132128,-16.878891,-16.958523,-16.731453,-16.823816,6
685052179,-11.513901,-13.033152,-1.519251,12.273526,-4.997325,-7.276201,-4.810810,-4.156637,-16.897154,-16.976786,-16.748714,-16.841173,6
685054177,-11.498737,-13.028669,-1.529932,12.263703,-4.984403,-7.279301,-4.822350,-4.176617,-16.912127,-16.991329,-16.764450,-16.856766,6
685056175,-11.496592,-13.030100,-1.533508,12.263346,-4.981542,-7.281804,-4.826260,-4.182053,-16.917038,-16.996908,-16.770220,-16.862154,6
685058172,-11.505556,-13.038921,-1.533365,12.272239,-4.986095,-7.286143,-4.825401,-4.177380,-16.915846,-16.995621,-16.768026,-16.861248,6
685060170,-11.522055,-13.044786,-1.522732,12.283421,-4.999661,-7.283759,-4.816294,-4.162407,-16.905117,-16.984272,-16.757107,-16.850567,6
685062168,-11.547852,-13.054037,-1.506186,12.300944,-5.020833,-7.280111,-4.805040,-4.140234,-16.887140,-16.966724,-16.740036,-16.833115,6
685064166,-11.568499,-13.060379,-1.491880,12.314439,-5.038309,-7.276130,-4.790449,-4.115868,-16.866398,-16.946173,-16.719007,-16.813087,6
685066164,-11.571789,-13.059425,-1.487637,12.315607,-5.042076,-7.273531,-4.778624,-4.100323,-16.855621,-16.935444,-16.707850,-16.801023,6
685068161,-11.551380,-13.045597,-1.494217,12.298489,-5.028582,-7.269907,-4.779625,-4.103041,-16.857433,-16.937447,-16.709709,-16.802073,6
685070159,-11.524630,-13.040113,-1.515484,12.282372,-5.004573,-7.277799,-4.798126,-4.130936,-16.877270,-16.957521,-16.730499,-16.823006,6
685072158,-11.498404,-13.034391,-1.535988,12.266397,-4.981208,-7.285190,-4.814959,-4.162312,-16.900444,-16.980505,-16.753531,-16.845989,6
685074156,-11.485958,-13.033009,-1.547050,12.259483,-4.969454,-7.290030,-4.826164,-4.181814,-16.914749,-16.994810,-16.768169,-16.860914,6
685076155,-11.467600,-13.016319,-1.548719,12.241960,-4.959440,-7.282519,-4.779625,-4.142189,-16.902304,-16.982508,-16.753292,-16.841316,6
685078153,-11.441183,-12.989950,-1.548767,12.215567,-4.946208,-7.269359,-4.741383,-4.101849,-16.888428,-16.968393,-16.736841,-16.811228,6
685080151,-11.457396,-12.992716,-1.535320,12.225056,-4.961038,-7.264018,-4.801035,-4.145670,-16.899061,-16.978550,-16.750622,-16.824579,6
685082148,-11.487675,-13.005924,-1.518250,12.246799,-4.984713,-7.262087,-4.797029,-4.129696,-16.884804,-16.963530,-16.736221,-16.813374,6
685084147,-11.517143,-13.015652,-1.498508,12.266397,-5.009317,-7.257080,-4.783010,-4.104662,-16.863680,-16.942978,-16.716051,-16.795111,6
685086145,-11.528778,-13.017607,-1.488829,12.273192,-5.019975,-7.253218,-4.771757,-4.090023,-16.853046,-16.932154,-16.704655,-16.784859,6
685088142,-11.515379,-13.011885,-1.496506,12.263632,-5.009437,-7.254195,-4.771662,-4.092026,-16.854858,-16.934395,-16.706944,-16.785240,6
685090139,-11.495638,-13.009357,-1.513720,12.252498,-4.990959,-7.261539,-4.791498,-4.120684,-16.874599,-16.953897,-16.726589,-16.805124,6
685092137,-11.473703,-13.004875,-1.531172,12.239289,-4.971266,-7.268023,-4.807711,-4.148245,-16.895103,-16.975260,-16.748047,-16.827869,6
685094135,-11.463928,-13.003302,-1.539373,12.233615,-4.962277,-7.271338,-4.818630,-4.165506,-16.908979,-16.989803,-16.761923,-16.843700,6
685096133,-11.462498,-13.002348,-1.539850,12.232423,-4.961324,-7.271099,-4.821873,-4.170036,-16.914320,-16.994667,-16.766834,-16.849613,6
685098130,-11.476660,-13.011646,-1.534986,12.244153,-4.970837,-7.273316,-4.819918,-4.166555,-16.911840,-16.992426,-16.764927,-16.848898,6
685100128,-11.497116,-13.018847,-1.521730,12.257981,-4.987693,-7.270288,-4.811668,-4.151726,-16.900730,-16.980457,-16.752529,-16.839504,6
685102126,-11.521387,-13.024902,-1.503515,12.273145,-5.008936,-7.264209,-4.798222,-4.127550,-16.883564,-16.963387,-16.735601,-16.823626,6
685104125,-11.543369,-13.032961,-1.489592,12.288165,-5.026889,-7.261276,-4.783821,-4.102564,-16.864252,-16.944551,-16.716337,-16.804886,6
685106121,-11.552382,-13.038206,-1.485825,12.295294,-5.033278,-7.262015,-4.777718,-4.089880,-16.856289,-16.935825,-16.708088,-16.795731,6
685108121,-11.543036,-13.034582,-1.491547,12.288809,-5.025744,-7.263064,-4.781580,-4.098034,-16.859245,-16.938972,-16.711760,-16.799974,6
685110117,-11.517525,-13.021994,-1.504469,12.269759,-5.006528,-7.263231,-4.786968,-4.114628,-16.872644,-16.952705,-16.724825,-16.810989,6
685112115,-11.496973,-13.017750,-1.520777,12.257361,-4.988098,-7.269263,-4.807377,-4.147959,-16.894293,-16.973925,-16.746473,-16.832447,6
685114112,-11.484814,-13.014507,-1.529694,12.249660,-4.977560,-7.272100,-4.818344,-4.166460,-16.908503,-16.987658,-16.760397,-16.847086,6
685116110,-11.484718,-13.016129,-1.531410,12.250423,-4.976654,-7.273769,-4.823256,-4.172182,-16.912651,-16.992521,-16.765404,-16.853380,6
685118108,-11.495304,-13.019180,-1.523876,12.257242,-4.985714,-7.271528,-4.820633,-4.167843,-16.909695,-16.989470,-16.762924,-16.851854,6
685120105,-11.513567,-13.023949,-1.510382,12.268758,-5.001593,-7.267165,-4.810381,-4.150105,-16.898346,-16.978550,-16.751814,-16.840553,6
685122103,-11.534882,-13.031340,-1.496458,12.283111,-5.019212,-7.263899,-4.800367,-4.126644,-16.882372,-16.962051,-16.735077,-16.825247,6
685124102,-11.553478,-13.037062,-1.483583,12.295270,-5.034947,-7.260323,-4.790640,-4.104233,-16.862869,-16.942453,-16.715240,-16.806555,6
685126099,-11.557579,-13.036680,-1.479101,12.297130,-5.039239,-7.257891,-4.780149,-4.090261,-16.852856,-16.932011,-16.704035,-16.795540,6
685128096,-11.544943,-13.028574,-1.483631,12.286758,-5.030656,-7.256103,-4.781294,-4.094648,-16.854858,-16.934824,-16.706371,-16.797066,6
685130094,-11.524010,-13.026810,-1.502800,12.275410,-5.010605,-7.264805,-4.801559,-4.123545,-16.874599,-16.954660,-16.726971,-16.816854,6
685132092,-11.499119,-13.023996,-1.524878,12.261558,-4.987121,-7.274437,-4.819918,-4.153347,-16.896534,-16.975975,-16.748476,-16.839075,6
685134089,-11.488867,-13.024473,-1.535606,12.256670,-4.976630,-7.280040,-4.829693,-4.171515,-16.909647,-16.989040,-16.762066,-16.853046,6
685136087,-11.486578,-13.024712,-1.538134,12.255645,-4.974222,-7.281423,-4.833317,-4.175997,-16.914129,-16.993618,-16.766596,-16.858101,6
685138085,-11.493874,-13.027477,-1.533604,12.260675,-4.980135,-7.280540,-4.830599,-4.170132,-16.911936,-16.991806,-16.764593,-16.856337,6
685140083,-11.512089,-13.031340,-1.519251,12.271714,-4.996419,-7.275295,-4.821491,-4.154539,-16.902065,-16.980982,-16.754293,-16.846275,6
685142080,-11.535406,-13.039446,-1.504040,12.287426,-5.015683,-7.271743,-4.807186,-4.131556,-16.885376,-16.964483,-16.737700,-16.829872,6
685144078,-11.560726,-13.048077,-1.487350,12.304401,-5.036688,-7.267714,-4.792976,-4.103851,-16.864634,-16.944504,-16.716957,-16.809273,6
685146076,-11.566496,-13.047504,-1.481009,12.307000,-5.042744,-7.264256,-4.784155,-4.089308,-16.854382,-16.934109,-16.705799,-16.798973,6
685148074,-11.551952,-13.040495,-1.488543,12.296224,-5.031705,-7.264519,-4.789639,-4.097986,-16.858482,-16.939259,-16.711712,-16.804409,6
685150072,-11.522388,-13.029432,-1.507044,12.275910,-5.007672,-7.268238,-4.798126,-4.120016,-16.873980,-16.954899,-16.727161,-16.819906,6
685152069,-11.492538,-13.017893,-1.525354,12.255216,-4.983592,-7.271624,-4.809237,-4.144955,-16.891289,-16.972208,-16.743946,-16.836596,6
685154067,-11.480618,-13.018847,-1.538229,12.249732,-4.971194,-7.278538,-4.822874,-4.166174,-16.906786,-16.986609,-16.759682,-16.851759,6
685156065,-11.481810,-13.023615,-1.541805,12.252712,-4.970002,-7.282710,-4.826975,-4.173613,-16.912556,-16.991758,-16.764593,-16.857481,6
685158063,-11.495256,-13.031864,-1.536608,12.263560,-4.979324,-7.284236,-4.824829,-4.170799,-16.909981,-16.989422,-16.762543,-16.855574,6
685160061,-11.510992,-13.037062,-1.526070,12.274027,-4.992461,-7.281566,-4.816580,-4.154730,-16.898918,-16.978645,-16.751623,-16.845465,6
685162058,-11.532593,-13.042545,-1.509953,12.287569,-5.011320,-7.276249,-4.805136,-4.130840,-16.883230,-16.962624,-16.735411,-16.829681,6
685164056,-11.550808,-13.046503,-1.495695,12.298656,-5.027556,-7.271099,-4.793215,-4.108143,-16.864681,-16.944170,-16.717005,-16.811323,6
685166055,-11.554909,-13.046932,-1.492023,12.300920,-5.031443,-7.269478,-4.782009,-4.094458,-16.854477,-16.934633,-16.706514,-16.800928,6
685168052,-11.540365,-13.038683,-1.498318,12.289524,-5.021024,-7.268500,-4.781866,-4.097033,-16.856956,-16.936398,-16.709042,-16.802073,6
685170050,-11.517572,-13.034821,-1.517248,12.276196,-5.000162,-7.276034,-4.799318,-4.125357,-16.877365,-16.956854,-16.729784,-16.822863,6
685172048,-11.492109,-13.030243,-1.538134,12.261176,-4.976988,-7.284188,-4.814243,-4.151917,-16.898012,-16.977501,-16.750383,-16.843748,6
685174047,-11.480808,-13.028526,-1.547718,12.254667,-4.966545,-7.288122,-4.822874,-4.168463,-16.910648,-16.990376,-16.763020,-16.856384,6
685176044,-11.480427,-13.026094,-1.545668,12.253261,-4.967380,-7.285881,-4.823112,-4.170799,-16.912699,-16.992664,-16.765547,-16.859055,6
685178044,-11.472511,-13.011789,-1.539278,12.242150,-4.966617,-7.275534,-4.769897,-4.118776,-16.892767,-16.972446,-16.743612,-16.832733,6
685180042,-11.449814,-12.986517,-1.536703,12.218165,-4.956555,-7.261610,-4.725599,-4.068708,-16.871357,-16.951942,-16.720343,-16.795349,6
685182040,-11.472893,-12.992048,-1.519156,12.232471,-4.976869,-7.255602,-4.783487,-4.108620,-16.877985,-16.958189,-16.730118,-16.805077,6
685184039,-11.503506,-13.003159,-1.499653,12.253332,-5.001926,-7.251406,-4.776525,-4.091311,-16.862059,-16.941547,-16.714382,-16.792583,6
685186036,-11.516953,-13.008642,-1.491690,12.262797,-5.012631,-7.250166,-4.767847,-4.077578,-16.853237,-16.932631,-16.705322,-16.785336,6
685188033,-11.515570,-13.012743,-1.497173,12.264156,-5.009198,-7.254958,-4.776525,-4.088497,-16.858768,-16.938257,-16.710949,-16.791391,6
685190031,-11.498642,-13.011646,-1.513004,12.255144,-4.992819,-7.262325,-4.793739,-4.115105,-16.875935,-16.955900,-16.729212,-16.810608,6
685192030,-11.479425,-13.010120,-1.530695,12.244773,-4.974365,-7.270408,-4.811239,-4.144526,-16.896677,-16.976166,-16.749430,-16.832781,6
685194027,-11.466837,-13.008118,-1.541281,12.237477,-4.962778,-7.274699,-4.818344,-4.158211,-16.908073,-16.987467,-16.760206,-16.843367,6
685196025,-11.463499,-13.007259,-1.543760,12.235379,-4.959869,-7.275510,-4.824543,-4.165173,-16.912651,-16.992044,-16.764688,-16.846561,6
685198023,-11.476231,-13.015652,-1.539421,12.245941,-4.968405,-7.277536,-4.826641,-4.165840,-16.911697,-16.991806,-16.764975,-16.848040,6
685200021,-11.497545,-13.021278,-1.523733,12.259412,-4.986906,-7.272506,-4.818106,-4.150295,-16.901207,-16.981697,-16.754818,-16.839218,6
685202019,-11.520576,-13.029099,-1.508522,12.274837,-5.006027,-7.268810,-4.804802,-4.130936,-16.887093,-16.967964,-16.740179,-16.826010,6
685204018,-11.543465,-13.036299,-1.492834,12.289882,-5.025315,-7.264566,-4.791451,-4.107285,-16.869164,-16.949129,-16.721630,-16.808701,6
685206015,-11.549282,-13.037968,-1.488686,12.293625,-5.030298,-7.263327,-4.783201,-4.092693,-16.859341,-16.938400,-16.711807,-16.799355,6
685208012,-11.538363,-13.033199,-1.494837,12.285781,-5.021763,-7.264018,-4.790163,-4.099989,-16.862917,-16.941833,-16.715097,-16.803503,6
685210010,-11.513376,-13.025713,-1.512337,12.269545,-5.000520,-7.269025,-4.803848,-4.122496,-16.879225,-16.958475,-16.731119,-16.820765,6
685212008,-11.488295,-13.018322,-1.530027,12.253308,-4.979134,-7.274175,-4.815912,-4.147625,-16.897678,-16.977978,-16.750526,-16.840219,6
685214006,-11.477566,-13.015366,-1.537800,12.246466,-4.969883,-7.276583,-4.822826,-4.164457,-16.910219,-16.990709,-16.763639,-16.852999,6
685216004,-11.471462,-13.007259,-1.535797,12.239361,-4.967833,-7.271528,-4.818106,-4.164028,-16.912985,-16.991901,-16.764688,-16.852665,6
685218001,-11.480570,-13.013649,-1.533079,12.247109,-4.973745,-7.273364,-4.818726,-4.162502,-16.911077,-16.990042,-16.763210,-16.851950,6
685219999,-11.497736,-13.022947,-1.525211,12.260342,-4.986262,-7.274079,-4.812860,-4.150343,-16.901541,-16.981411,-16.754198,-16.844511,6
685221997,-11.524010,-13.033056,-1.509047,12.278533,-5.007482,-7.271051,-4.805422,-4.131889,-16.886806,-16.966629,-16.739798,-16.830635,6
685223996,-11.549711,-13.041162,-1.491451,12.295437,-5.029130,-7.266307,-4.791880,-4.110718,-16.868687,-16.947937,-16.720581,-16.811800,6
685225993,-11.562538,-13.045883,-1.483345,12.304211,-5.039597,-7.264614,-4.782963,-4.095745,-16.858435,-16.937637,-16.710806,-16.801310,6
685227991,-11.553526,-13.041687,-1.488161,12.297606,-5.032682,-7.264924,-4.787016,-4.101944,-16.861629,-16.940784,-16.713333,-16.804790,6
685229989,-11.526203,-13.030720,-1.504517,12.278461,-5.010843,-7.267618,-4.797077,-4.122591,-16.876173,-16.955519,-16.727829,-16.817999,6
685231986,-11.501837,-13.025856,-1.524019,12.263846,-4.988909,-7.274938,-4.817104,-4.154921,-16.898537,-16.977739,-16.750526,-16.841078,6
685233984,-11.488295,-13.022566,-1.534271,12.255430,-4.977012,-7.278419,-4.825115,-4.170084,-16.912174,-16.991711,-16.764450,-16.855669,6
685235982,-11.483574,-13.020849,-1.537275,12.252212,-4.973149,-7.279062,-4.828501,-4.175138,-16.916943,-16.996717,-16.769648,-16.861057,6
685237979,-11.495161,-13.027763,-1.532602,12.261462,-4.981279,-7.280183,-4.828167,-4.173422,-16.915035,-16.994715,-16.767597,-16.859913,6
685239977,-11.510944,-13.033533,-1.522589,12.272239,-4.994178,-7.278061,-4.821491,-4.161358,-16.904688,-16.984224,-16.757202,-16.849947,6
685241975,-11.531782,-13.038588,-1.506805,12.285185,-5.012488,-7.272696,-4.810286,-4.140425,-16.887999,-16.968107,-16.740990,-16.834354,6
685243973,-11.552429,-13.043022,-1.490593,12.297726,-5.030918,-7.266808,-4.796839,-4.116821,-16.869402,-16.949368,-16.722298,-16.815472,6
685245971,-11.557055,-13.041401,-1.484346,12.299228,-5.036354,-7.262874,-4.783821,-4.098177,-16.857767,-16.937304,-16.710854,-16.803789,6
685247969,-11.543322,-13.032866,-1.489544,12.288094,-5.026889,-7.261205,-4.782772,-4.101562,-16.858625,-16.937971,-16.711903,-16.803789,6
685249966,-11.525106,-13.030434,-1.505327,12.277770,-5.009890,-7.267880,-4.800510,-4.129505,-16.877699,-16.957569,-16.730833,-16.822910,6
685251964,-11.499929,-13.026428,-1.526499,12.263179,-4.986715,-7.276464,-4.817820,-4.158878,-16.898680,-16.978645,-16.751862,-16.843176,6
685253962,-11.489153,-13.026190,-1.537037,12.257671,-4.976058,-7.281613,-4.827929,-4.175329,-16.911459,-16.991234,-16.764832,-16.856146,6
685255960,-11.491251,-13.025761,-1.534510,12.258506,-4.978371,-7.280135,-4.830074,-4.179144,-16.915560,-16.995430,-16.768980,-16.860485,6
685257958,-11.501884,-13.028288,-1.526403,12.265086,-4.987741,-7.277346,-4.828310,-4.174614,-16.913986,-16.993380,-16.766596,-16.858864,6
685259955,-11.517572,-13.031101,-1.513529,12.274337,-5.002022,-7.272315,-4.819679,-4.161072,-16.903448,-16.983795,-16.756248,-16.848898,6
685261953,-11.534882,-13.036585,-1.501703,12.285733,-5.016589,-7.269144,-4.806328,-4.141617,-16.888952,-16.968870,-16.741705,-16.834831,6
685263952,-11.552811,-13.042736,-1.489925,12.297773,-5.031443,-7.266331,-4.793262,-4.118681,-16.870070,-16.950083,-16.723824,-16.816759,6
685265949,-11.558056,-13.045168,-1.487112,12.301612,-5.035472,-7.266140,-4.786873,-4.106140,-16.861153,-16.940928,-16.713953,-16.807413,6
685267946,-11.546373,-13.040018,-1.493645,12.293196,-5.026364,-7.266831,-4.789066,-4.113007,-16.865253,-16.944504,-16.717720,-16.810942,6
685269944,-11.524773,-13.032341,-1.507568,12.278557,-5.008602,-7.269955,-4.800129,-4.135418,-16.880846,-16.959953,-16.733885,-16.825914,6
685271942,-11.504030,-13.028526,-1.524496,12.266278,-4.989767,-7.276511,-4.817820,-4.165745,-16.900492,-16.980219,-16.753531,-16.846752,6
685273940,-11.492205,-13.027525,-1.535320,12.259865,-4.978442,-7.281423,-4.827642,-4.183245,-16.912413,-16.992378,-16.765690,-16.859341,6
685275937,-11.485624,-13.024092,-1.538467,12.254858,-4.973578,-7.281280,-4.829931,-4.186201,-16.915846,-16.996193,-16.768789,-16.863298,6
685277939,-11.486292,-13.020468,-1.534176,12.253380,-4.976058,-7.277322,-4.814482,-4.170513,-16.910076,-16.989899,-16.761732,-16.855431,6
685279936,-11.468029,-12.995577,-1.527548,12.231803,-4.970241,-7.261562,-4.726934,-4.083729,-16.874409,-16.954851,-16.721821,-16.804838,6
685281934,-11.469221,-12.987423,-1.518202,12.228322,-4.975510,-7.252812,-4.759550,-4.102373,-16.875505,-16.955900,-16.725588,-16.800404,6
685283933,-11.495638,-12.995577,-1.499939,12.245607,-4.997849,-7.247758,-4.780388,-4.111099,-16.869688,-16.949797,-16.721582,-16.799498,6
685285930,-11.505651,-13.001251,-1.495600,12.253451,-5.005026,-7.248425,-4.773808,-4.099464,-16.861725,-16.942120,-16.712904,-16.791868,6
685287927,-11.500883,-13.001108,-1.500225,12.250996,-5.000329,-7.250667,-4.780579,-4.108763,-16.866159,-16.945648,-16.718578,-16.798973,6
685289925,-11.486149,-13.000154,-1.514006,12.243152,-4.986072,-7.257080,-4.793453,-4.132557,-16.883087,-16.962576,-16.735363,-16.817665,6
685291923,-11.467838,-12.996483,-1.528645,12.232161,-4.969597,-7.262564,-4.805946,-4.157591,-16.901302,-16.980600,-16.753626,-16.837215,6
685293920,-11.461067,-12.999392,-1.538324,12.230229,-4.961371,-7.268858,-4.816484,-4.172277,-16.913414,-16.993141,-16.765785,-16.850138,6
685295918,-11.461020,-13.000536,-1.539516,12.230778,-4.960752,-7.270026,-4.817295,-4.176474,-16.917038,-16.996574,-16.769028,-16.854811,6
685297916,-11.468363,-12.998199,-1.529837,12.233281,-4.969263,-7.264018,-4.805040,-4.161644,-16.911507,-16.990662,-16.763639,-16.848278,6
685299914,-11.483049,-13.002872,-1.519823,12.242961,-4.981613,-7.261348,-4.801130,-4.151964,-16.904068,-16.983557,-16.756344,-16.840601,6
685301912,-11.507130,-13.015079,-1.507950,12.261105,-4.999590,-7.261515,-4.793596,-4.137325,-16.891861,-16.971254,-16.744757,-16.829920,6
685303911,-11.530972,-13.024759,-1.493788,12.277865,-5.018592,-7.259274,-4.783344,-4.116488,-16.875792,-16.954851,-16.728830,-16.814709,6
685305908,-11.538935,-13.026524,-1.487589,12.282729,-5.025673,-7.257056,-4.778099,-4.105425,-16.866732,-16.946983,-16.719294,-16.805935,6
685307905,-11.525917,-13.020706,-1.494789,12.273312,-5.015564,-7.257748,-4.780388,-4.109573,-16.869020,-16.948986,-16.721582,-16.808701,6
685309903,-11.500072,-13.009167,-1.509094,12.254620,-4.995489,-7.259130,-4.789019,-4.126406,-16.882467,-16.962004,-16.735029,-16.821098,6
685311901,-11.481953,-13.005304,-1.523352,12.243629,-4.979300,-7.264328,-4.808521,-4.155540,-16.902018,-16.981363,-16.754150,-16.841030,6
685313898,-11.475658,-13.006544,-1.530886,12.241101,-4.972386,-7.268715,-4.818821,-4.170609,-16.913128,-16.991997,-16.765451,-16.852808,6
685315896,-11.475897,-13.011503,-1.535606,12.243700,-4.970145,-7.273555,-4.822254,-4.174852,-16.915846,-16.995382,-16.768885,-16.857100,6
685317894,-11.486530,-13.016987,-1.530457,12.251759,-4.978037,-7.273722,-4.821157,-4.170465,-16.913748,-16.993380,-16.766548,-16.855669,6
685319891,-11.503267,-13.022041,-1.518774,12.262654,-4.992247,-7.270408,-4.810715,-4.156780,-16.905069,-16.984892,-16.757774,-16.846943,6
685321889,-11.524820,-13.030481,-1.505661,12.277651,-5.009580,-7.268071,-4.800081,-4.138899,-16.892767,-16.971779,-16.745043,-16.835165,6
685323888,-11.542463,-13.036108,-1.493645,12.289286,-5.024409,-7.264876,-4.787922,-4.121161,-16.876554,-16.956520,-16.729069,-16.820240,6
685325885,-11.546755,-13.038635,-1.491880,12.292695,-5.027437,-7.265258,-4.781723,-4.110861,-16.869259,-16.949272,-16.720867,-16.811705,6
685327883,-11.534023,-13.034391,-1.500368,12.284207,-5.016828,-7.267380,-4.784632,-4.115677,-16.871309,-16.951513,-16.724062,-16.813421,6
685329881,-11.517429,-13.036680,-1.519251,12.277055,-4.999089,-7.277966,-4.805660,-4.143429,-16.889334,-16.968346,-16.741753,-16.832161,6
685331878,-11.499214,-13.035488,-1.536274,12.267351,-4.981470,-7.285881,-4.821730,-4.170036,-16.908598,-16.987658,-16.760921,-16.851521,6
685333876,-11.493492,-13.037300,-1.543808,12.265396,-4.974842,-7.290554,-4.827356,-4.183102,-16.919613,-16.998720,-16.771841,-16.862679,6
685335874,-11.491728,-13.038349,-1.546621,12.265038,-4.972553,-7.292485,-4.828167,-4.187059,-16.922045,-17.001390,-16.774702,-16.865730,6
685337872,-11.501503,-13.042259,-1.540756,12.271881,-4.980373,-7.291508,-4.825735,-4.181337,-16.918087,-16.998291,-16.770935,-16.862202,6
