timestamp_us,I_mV,II_mV,III_mV,aVR_mV,aVL_mV,aVF_mV,V1_mV,V2_mV,V3_mV,V4_mV,V5_mV,V6_mV,gain
46053134,-11.694145,-13.268185,-1.574039,12.481165,-5.060053,-7.421112,-4.913759,-4.179764,-16.935205,-17.015076,-16.787720,-16.880465,6
46055131,-11.623001,-13.247538,-1.624537,12.435269,-4.999232,-7.436037,-4.942179,-4.236412,-16.979361,-17.059422,-16.831398,-16.923380,6
46057130,-11.556244,-13.228130,-1.671886,12.392187,-4.942179,-7.450008,-4.977894,-4.302120,-17.030525,-17.111540,-16.883183,-16.975498,6
46059127,-11.509037,-13.211536,-1.702499,12.360287,-4.903269,-7.457018,-4.993534,-4.340839,-17.066956,-17.146873,-16.918993,-17.010212,6
46061125,-11.491585,-13.206577,-1.714993,12.349081,-4.888296,-7.460785,-5.006742,-4.366922,-17.090988,-17.170477,-16.942978,-17.033243,6
46063123,-11.507702,-13.211346,-1.703644,12.359524,-4.902029,-7.457495,-5.005312,-4.363012,-17.090893,-17.170191,-16.942453,-17.033815,6
46065121,-11.550474,-13.226080,-1.675606,12.388277,-4.937434,-7.450843,-4.985666,-4.327631,-17.064381,-17.143917,-16.916466,-17.008114,6
46067119,-11.616802,-13.248730,-1.631927,12.432766,-4.992437,-7.440329,-4.953671,-4.265976,-17.011690,-17.091560,-16.864395,-16.956186,6
46069116,-11.682224,-13.271427,-1.589203,12.476826,-5.046511,-7.430315,-4.923201,-4.202938,-16.956854,-17.036343,-16.808844,-16.901398,6
46071114,-11.706305,-13.277245,-1.570940,12.491775,-5.067682,-7.424092,-4.906178,-4.169130,-16.926003,-17.005825,-16.778231,-16.871834,6
46073113,-11.680508,-13.269758,-1.589251,12.475133,-5.045629,-7.429504,-4.914951,-4.183960,-16.935301,-17.014790,-16.787481,-16.881037,6
46075110,-11.612320,-13.245869,-1.633549,12.429094,-4.989386,-7.439709,-4.942703,-4.239702,-16.979170,-17.058802,-16.830587,-16.923857,6
46077108,-11.547041,-13.227320,-1.680279,12.387180,-4.933381,-7.453799,-4.976130,-4.303551,-17.030573,-17.110634,-16.882038,-16.975832,6
46079106,-11.502838,-13.213348,-1.710510,12.358093,-4.896164,-7.461929,-4.995108,-4.343700,-17.066574,-17.146683,-16.918707,-17.011499,6
46081104,-11.487770,-13.212967,-1.725197,12.350368,-4.881287,-7.469082,-5.014992,-4.375076,-17.092228,-17.172098,-16.945171,-17.037201,6
46083102,-11.499977,-13.219929,-1.719952,12.359953,-4.890013,-7.469940,-5.014467,-4.375267,-17.092657,-17.172289,-16.945171,-17.038202,6
46085100,-11.540031,-13.233089,-1.693058,12.386560,-4.923487,-7.463074,-4.998446,-4.339170,-17.066669,-17.146635,-16.919231,-17.012310,6
46087098,-11.605787,-13.252831,-1.647043,12.429309,-4.979372,-7.449937,-4.965830,-4.275608,-17.014217,-17.094183,-16.867256,-16.960716,6
46089096,-11.675882,-13.276672,-1.600790,12.476277,-5.037546,-7.438731,-4.931784,-4.211044,-16.958523,-17.038155,-16.811085,-16.905642,6
46091094,-11.705589,-13.289595,-1.584005,12.497592,-5.060792,-7.436800,-4.917240,-4.181576,-16.928673,-17.007685,-16.780567,-16.875601,6
46093092,-11.679411,-13.283443,-1.604033,12.481427,-5.037689,-7.443738,-4.926729,-4.198980,-16.938066,-17.017460,-16.789913,-16.885185,6
46095091,-11.616850,-13.262463,-1.645613,12.439656,-4.985619,-7.454038,-4.953241,-4.253006,-16.981983,-17.062473,-16.834164,-16.928864,6
46097088,-11.553097,-13.240767,-1.687670,12.396932,-4.932714,-7.464218,-4.976797,-4.307413,-17.030334,-17.109919,-16.881847,-16.976500,6
46099088,-11.504745,-13.217974,-1.713228,12.361360,-4.895759,-7.465601,-4.985046,-4.338360,-17.063236,-17.142963,-16.914940,-17.006874,6
46101086,-11.451149,-13.183212,-1.732063,12.317181,-4.859543,-7.457638,-4.923630,-4.295969,-17.062616,-17.143774,-16.911602,-16.992331,6
46103084,-11.443853,-13.173389,-1.729536,12.308621,-4.857159,-7.451463,-4.968929,-4.336071,-17.079687,-17.160130,-16.930151,-17.001724,6
46105082,-11.493397,-13.190126,-1.696730,12.341762,-4.898334,-7.443428,-4.980135,-4.328442,-17.064762,-17.144012,-16.915417,-16.992187,6
46107080,-11.566734,-13.215017,-1.648283,12.390876,-4.959226,-7.431650,-4.948664,-4.265451,-17.012930,-17.092323,-16.864491,-16.945314,6
46109078,-11.638498,-13.239336,-1.600838,12.438917,-5.018830,-7.420087,-4.917002,-4.199839,-16.957712,-17.037201,-16.809273,-16.893768,6
46111076,-11.669683,-13.251591,-1.581907,12.460637,-5.043888,-7.416749,-4.902887,-4.167891,-16.926861,-17.006302,-16.778421,-16.866159,6
46113077,-11.648226,-13.249111,-1.600885,12.448668,-5.023670,-7.424998,-4.912233,-4.184341,-16.935301,-17.015457,-16.787243,-16.876268,6
46115073,-11.583138,-13.228750,-1.645613,12.405944,-4.968762,-7.437181,-4.941273,-4.236794,-16.978168,-17.058468,-16.831255,-16.918325,6
46117071,-11.521244,-13.210964,-1.689720,12.366104,-4.915762,-7.450342,-4.978037,-4.299879,-17.031193,-17.111015,-16.882801,-16.969824,6
46119068,-11.478901,-13.197565,-1.718664,12.338233,-4.880118,-7.458115,-4.996490,-4.341316,-17.067146,-17.146921,-16.918612,-17.004919,6
46121066,-11.461687,-13.196087,-1.734400,12.328887,-4.863644,-7.465243,-5.011368,-4.370308,-17.090988,-17.170811,-16.943169,-17.026997,6
46123063,-11.477566,-13.204718,-1.727152,12.341142,-4.875207,-7.465935,-5.014753,-4.371595,-17.092562,-17.173100,-16.945219,-17.030048,6
46125061,-11.521864,-13.220453,-1.698589,12.371159,-4.911637,-7.459521,-4.998255,-4.338646,-17.067719,-17.147827,-16.919899,-17.006588,6
46127059,-11.591673,-13.240433,-1.648760,12.416053,-4.971457,-7.444596,-4.964972,-4.275179,-17.015553,-17.094946,-16.867113,-16.956329,6
46129057,-11.660147,-13.263273,-1.603127,12.461710,-5.028510,-7.433200,-4.933071,-4.209852,-16.959429,-17.039251,-16.811323,-16.902256,6
46131055,-11.693382,-13.272524,-1.579142,12.482953,-5.057120,-7.425833,-4.917479,-4.177284,-16.928148,-17.007399,-16.780329,-16.871786,6
46133054,-11.675501,-13.268089,-1.592588,12.471795,-5.041456,-7.430339,-4.924631,-4.191303,-16.936636,-17.015934,-16.788578,-16.880655,6
46135051,-11.610126,-13.248968,-1.638842,12.429547,-4.985642,-7.443905,-4.948902,-4.246044,-16.979027,-17.059469,-16.831684,-16.923714,6
46137049,-11.539412,-13.224506,-1.685095,12.381959,-4.927158,-7.454801,-4.977846,-4.305410,-17.027521,-17.107964,-16.880798,-16.971445,6
46139047,-11.493397,-13.207865,-1.714468,12.350631,-4.889464,-7.461166,-5.005550,-4.353046,-17.067385,-17.146778,-16.919947,-17.009306,6
46141045,-11.478662,-13.209057,-1.730394,12.343860,-4.874134,-7.469726,-5.020094,-4.381990,-17.093229,-17.173195,-16.945219,-17.034292,6
46143043,-11.494493,-13.214827,-1.720333,12.354660,-4.887080,-7.467580,-5.018377,-4.380131,-17.093372,-17.173576,-16.945934,-17.035389,6
46145041,-11.537361,-13.230276,-1.692915,12.383819,-4.922223,-7.461596,-4.999733,-4.348612,-17.068672,-17.148638,-16.920996,-17.012072,6
46147039,-11.605215,-13.251638,-1.646423,12.428427,-4.979396,-7.449031,-4.968452,-4.285717,-17.016459,-17.096853,-16.868639,-16.960716,6
46149037,-11.674833,-13.273382,-1.598549,12.474108,-5.038142,-7.435966,-4.935265,-4.218340,-16.960144,-17.040539,-16.812420,-16.905355,6
46151035,-11.707401,-13.283300,-1.575899,12.495351,-5.065751,-7.429600,-4.917336,-4.183245,-16.928005,-17.008448,-16.780472,-16.873884,6
46153034,-11.686134,-13.275909,-1.589775,12.481022,-5.048180,-7.432842,-4.920673,-4.193878,-16.935396,-17.015505,-16.787577,-16.881895,6
46155031,-11.614990,-13.252926,-1.637936,12.433958,-4.988527,-7.445431,-4.943991,-4.245567,-16.977024,-17.057562,-16.829109,-16.922331,6
46157030,-11.543941,-13.225842,-1.681900,12.384892,-4.931021,-7.453871,-4.969788,-4.300547,-17.026138,-17.106485,-16.877985,-16.970253,6
46159028,-11.501646,-13.210106,-1.708460,12.355876,-4.896593,-7.459283,-4.995155,-4.347849,-17.065287,-17.145443,-16.917515,-17.009354,6
46161026,-11.481857,-13.205194,-1.723337,12.343526,-4.879260,-7.464266,-5.007696,-4.373884,-17.090130,-17.170620,-16.942596,-17.034054,6
46163024,-11.491108,-13.208246,-1.717138,12.349677,-4.886985,-7.462692,-5.006647,-4.370403,-17.090845,-17.170811,-16.943312,-17.034340,6
46165022,-11.530876,-13.224888,-1.694012,12.377882,-4.918432,-7.459450,-4.992437,-4.337263,-17.066383,-17.146587,-16.918612,-17.010593,6
46167020,-11.596203,-13.245964,-1.649761,12.421083,-4.973221,-7.447863,-4.959345,-4.274845,-17.014122,-17.094421,-16.866493,-16.959953,6
46169018,-11.662197,-13.267231,-1.605034,12.464714,-5.028582,-7.436132,-4.923868,-4.207802,-16.958523,-17.038774,-16.810179,-16.904879,6
46171016,-11.689234,-13.275099,-1.585865,12.482166,-5.051684,-7.430482,-4.905891,-4.171658,-16.926765,-17.005968,-16.778183,-16.873074,6
46173015,-11.669016,-13.272095,-1.603079,12.470555,-5.032969,-7.437587,-4.914570,-4.185057,-16.934252,-17.013788,-16.785860,-16.880798,6
46175012,-11.604023,-13.250780,-1.646757,12.427402,-4.978633,-7.448769,-4.939604,-4.235792,-16.976213,-17.056894,-16.828632,-16.922188,6
46177010,-11.537838,-13.228989,-1.691151,12.383413,-4.923344,-7.460070,-4.969645,-4.295158,-17.025852,-17.106819,-16.877747,-16.970396,6
46179009,-11.500883,-13.219357,-1.718473,12.360120,-4.891205,-7.468915,-4.995298,-4.343605,-17.065573,-17.145872,-16.917610,-17.010736,6
46181007,-11.482763,-13.215017,-1.732254,12.348890,-4.875255,-7.473636,-5.010557,-4.370975,-17.090273,-17.171001,-16.942692,-17.036057,6
46183005,-11.490917,-13.215065,-1.724148,12.352991,-4.883385,-7.469606,-5.007029,-4.366016,-17.090750,-17.170811,-16.943598,-17.036200,6
46185003,-11.530972,-13.227463,-1.696491,12.379217,-4.917240,-7.461977,-4.988384,-4.333019,-17.065144,-17.146301,-16.918039,-17.011404,6
46187001,-11.601067,-13.247919,-1.646852,12.424493,-4.977107,-7.447386,-4.957151,-4.271555,-17.014217,-17.095041,-16.866875,-16.960716,6
46188999,-11.665916,-13.266516,-1.600599,12.466216,-5.032659,-7.433558,-4.923487,-4.205608,-16.958475,-17.038441,-16.810656,-16.904688,6
46190997,-11.690521,-13.271379,-1.580858,12.480950,-5.054832,-7.426119,-4.905081,-4.169989,-16.926146,-17.005968,-16.778231,-16.873169,6
46192996,-11.670065,-13.265705,-1.595640,12.467885,-5.037212,-7.430673,-4.910564,-4.181576,-16.933489,-17.013264,-16.785812,-16.881418,6
46194993,-11.608791,-13.249826,-1.641035,12.429309,-4.983878,-7.445431,-4.935932,-4.234695,-16.976213,-17.056131,-16.828823,-16.923237,6
46196991,-11.547899,-13.233471,-1.685572,12.390685,-4.931164,-7.459521,-4.969549,-4.299402,-17.028427,-17.107964,-16.880369,-16.974783,6
46198990,-11.510086,-13.223648,-1.713562,12.366867,-4.898262,-7.468605,-4.991484,-4.342222,-17.066908,-17.146921,-16.918230,-17.012930,6
46200990,-11.488056,-13.213730,-1.725674,12.350893,-4.881191,-7.469702,-4.986715,-4.352188,-17.084455,-17.164660,-16.935492,-17.028379,6
46202988,-11.459494,-13.184261,-1.724768,12.321877,-4.867363,-7.454515,-4.909134,-4.279804,-17.059755,-17.139721,-16.906834,-16.989899,6
46204986,-11.485291,-13.188982,-1.703691,12.337136,-4.890800,-7.446337,-4.947615,-4.296494,-17.054701,-17.134809,-16.904640,-16.983795,6
46206985,-11.559200,-13.212490,-1.653290,12.385845,-4.952955,-7.432890,-4.942751,-4.261065,-17.011881,-17.092323,-16.863775,-16.947031,6
46208983,-11.634398,-13.240671,-1.606274,12.437534,-5.014062,-7.423472,-4.910707,-4.196072,-16.956806,-17.036629,-16.808319,-16.895199,6
46210981,-11.666346,-13.252974,-1.586628,12.459660,-5.039859,-7.419801,-4.894352,-4.162359,-16.925144,-17.004728,-16.776657,-16.865778,6
46212981,-11.645842,-13.249350,-1.603508,12.447596,-5.021167,-7.426429,-4.901838,-4.176807,-16.932249,-17.012215,-16.784382,-16.873789,6
46214977,-11.584473,-13.227510,-1.643038,12.405992,-4.970717,-7.435274,-4.923677,-4.229403,-16.973352,-17.053938,-16.825867,-16.914511,6
46216975,-11.520672,-13.204479,-1.683807,12.362576,-4.918432,-7.444143,-4.951668,-4.287434,-17.022753,-17.103004,-16.875267,-16.960907,6
46218973,-11.484098,-13.195229,-1.711130,12.339664,-4.886484,-7.453179,-4.976845,-4.335928,-17.063427,-17.143440,-16.915369,-17.000389,6
46220971,-11.470795,-13.197374,-1.726580,12.334085,-4.872108,-7.461977,-4.991007,-4.364204,-17.089081,-17.168856,-16.941595,-17.026329,6
46222969,-11.483431,-13.203382,-1.719952,12.343407,-4.881740,-7.461667,-4.990101,-4.362297,-17.090034,-17.169666,-16.942072,-17.028093,6
46224967,-11.524725,-13.217402,-1.692677,12.371063,-4.916024,-7.455039,-4.974031,-4.330969,-17.065668,-17.145348,-16.917801,-17.006254,6
46226965,-11.592007,-13.237524,-1.645517,12.414765,-4.973245,-7.441521,-4.945040,-4.270792,-17.015314,-17.094707,-16.867447,-16.957235,6
46228964,-11.662292,-13.259220,-1.596928,12.460756,-5.032682,-7.428074,-4.913044,-4.202938,-16.958618,-17.038393,-16.810703,-16.902447,6
46230962,-11.693478,-13.268757,-1.575279,12.481117,-5.059099,-7.422018,-4.897642,-4.166317,-16.925716,-17.006016,-16.777945,-16.870451,6
46232960,-11.677980,-13.265467,-1.587486,12.471724,-5.045247,-7.426476,-4.903269,-4.176950,-16.932631,-17.012167,-16.784286,-16.877222,6
46234958,-11.610794,-13.244343,-1.633549,12.427568,-4.988623,-7.438946,-4.928207,-4.230309,-16.974831,-17.054510,-16.827154,-16.919184,6
46236956,-11.542463,-13.228035,-1.685572,12.385249,-4.928446,-7.456803,-4.966927,-4.296827,-17.027283,-17.107439,-16.879845,-16.971254,6
46238955,-11.495209,-13.212490,-1.717281,12.353849,-4.888964,-7.464886,-4.985380,-4.338598,-17.064428,-17.144203,-16.916561,-17.007637,6
46240952,-11.473799,-13.205004,-1.731205,12.339401,-4.871297,-7.468104,-4.997683,-4.362011,-17.087650,-17.168283,-16.939592,-17.030048,6
46242950,-11.486244,-13.212490,-1.726246,12.349367,-4.879999,-7.469368,-5.002451,-4.364443,-17.090797,-17.170620,-16.943073,-17.033386,6
46244948,-11.530018,-13.228226,-1.698208,12.379122,-4.915905,-7.463217,-4.986382,-4.334307,-17.067146,-17.146921,-16.919613,-17.010498,6
46246946,-11.599112,-13.251877,-1.652765,12.425494,-4.973173,-7.452321,-4.953671,-4.273653,-17.015791,-17.096138,-16.868305,-16.960096,6
46248944,-11.666965,-13.277292,-1.610327,12.472129,-5.028319,-7.443810,-4.922295,-4.209280,-16.959524,-17.039824,-16.812038,-16.904879,6
46250942,-11.696672,-13.288593,-1.591921,12.492633,-5.052376,-7.440257,-4.907322,-4.172897,-16.926908,-17.006922,-16.779280,-16.872931,6
46252940,-11.676455,-13.281441,-1.604986,12.478948,-5.035734,-7.443213,-4.912758,-4.183722,-16.933441,-17.012930,-16.785336,-16.879511,6
46254938,-11.611509,-13.259602,-1.648092,12.435555,-4.981709,-7.453847,-4.936457,-4.236174,-16.975451,-17.055082,-16.826534,-16.920376,6
46256936,-11.549330,-13.242912,-1.693583,12.396121,-4.927874,-7.468247,-4.971313,-4.302883,-17.027807,-17.107344,-16.880083,-16.973114,6
46258934,-11.505795,-13.229370,-1.723576,12.367582,-4.891109,-7.476473,-4.994583,-4.348373,-17.066908,-17.146778,-16.919661,-17.011929,6
46260932,-11.484671,-13.223219,-1.738548,12.353945,-4.873061,-7.480884,-5.005503,-4.375029,-17.092276,-17.171812,-16.944742,-17.036724,6
46262931,-11.497450,-13.224745,-1.727295,12.361097,-4.885077,-7.476020,-5.003929,-4.371214,-17.092896,-17.171955,-16.945219,-17.037487,6
46264928,-11.536646,-13.231611,-1.694965,12.384129,-4.920840,-7.463288,-4.980850,-4.331398,-17.065859,-17.145586,-16.917753,-17.010164,6
46266926,-11.604023,-13.252497,-1.648474,12.428260,-4.977775,-7.450485,-4.953337,-4.271841,-17.015600,-17.095613,-16.867256,-16.960716,6
46268924,-11.672497,-13.275194,-1.602697,12.473845,-5.034900,-7.438946,-4.921389,-4.205942,-16.960001,-17.039394,-16.811705,-16.905642,6
46270922,-11.701441,-13.282728,-1.581287,12.492085,-5.060077,-7.432008,-4.903030,-4.168510,-16.926098,-17.006063,-16.778755,-16.872501,6
46272920,-11.682415,-13.276052,-1.593637,12.479234,-5.044389,-7.434845,-4.909515,-4.177523,-16.931581,-17.011547,-16.783619,-16.878414,6
46274918,-11.618757,-13.255548,-1.636791,12.437153,-4.990983,-7.446170,-4.934168,-4.226160,-16.973400,-17.052507,-16.824436,-16.919661,6
46276917,-11.552525,-13.236523,-1.683998,12.394524,-4.934263,-7.460260,-4.969978,-4.292202,-17.025757,-17.105484,-16.877365,-16.971970,6
46278914,-11.504126,-13.219881,-1.715755,12.362003,-4.894185,-7.467818,-4.988050,-4.333591,-17.062378,-17.142725,-16.914320,-17.007399,6
46280912,-11.486101,-13.212776,-1.726675,12.349439,-4.879713,-7.469726,-5.000305,-4.359722,-17.087078,-17.167664,-16.939402,-17.032957,6
46282910,-11.499596,-13.218212,-1.718616,12.358904,-4.890490,-7.468414,-5.000925,-4.362535,-17.090130,-17.169666,-16.942120,-17.036009,6
46284908,-11.537743,-13.230610,-1.692867,12.384176,-4.922438,-7.461739,-4.985380,-4.332590,-17.066813,-17.146635,-16.918564,-17.012453,6
46286906,-11.602831,-13.250637,-1.647806,12.426734,-4.977512,-7.449222,-4.954529,-4.271221,-17.015553,-17.095613,-16.867733,-16.961765,6
46288904,-11.669493,-13.270664,-1.601171,12.470078,-5.034161,-7.435918,-4.920101,-4.203939,-16.958284,-17.038679,-16.810751,-16.904926,6
46290902,-11.698818,-13.278961,-1.580143,12.488890,-5.059338,-7.429552,-4.901457,-4.167366,-16.924858,-17.004585,-16.776848,-16.872072,6
46292900,-11.677980,-13.273096,-1.595116,12.475538,-5.041432,-7.434106,-4.906940,-4.178381,-16.930771,-17.010546,-16.782999,-16.878414,6
46294899,-11.611176,-13.252831,-1.641655,12.432003,-4.984760,-7.447243,-4.929876,-4.228354,-16.971970,-17.052078,-16.824055,-16.918325,6
46296896,-11.540937,-13.227654,-1.686716,12.384295,-4.927111,-7.457185,-4.958487,-4.286480,-17.021370,-17.100668,-16.873074,-16.966391,6
46298894,-11.496639,-13.213348,-1.716709,12.354994,-4.889965,-7.465029,-4.987383,-4.339743,-17.061567,-17.141533,-16.913748,-17.007780,6
46300892,-11.479855,-13.210392,-1.730537,12.345123,-4.874659,-7.470465,-5.001497,-4.369545,-17.087841,-17.167091,-16.939592,-17.034101,6
46302890,-11.491013,-13.215065,-1.724052,12.353039,-4.883480,-7.469559,-4.999018,-4.367161,-17.089319,-17.167950,-16.940975,-17.034960,6
46304890,-11.511421,-13.210487,-1.699066,12.360954,-4.906178,-7.454777,-4.931545,-4.288769,-17.049026,-17.128515,-16.898298,-16.988134,6
46306888,-11.538935,-13.200092,-1.661158,12.369514,-4.938889,-7.430625,-4.869318,-4.196930,-16.988134,-17.068577,-16.837597,-16.918707,6
46308886,-11.606407,-13.222027,-1.615620,12.414217,-4.995394,-7.418823,-4.901695,-4.187489,-16.953325,-17.033577,-16.805840,-16.889858,6
46310884,-11.643219,-13.233137,-1.589918,12.438178,-5.026650,-7.411528,-4.890490,-4.157019,-16.922331,-17.002487,-16.774797,-16.861725,6
46312884,-11.632586,-13.232708,-1.600122,12.432647,-5.016232,-7.416415,-4.899597,-4.169083,-16.928434,-17.008018,-16.780567,-16.868925,6
46314880,-11.571980,-13.216448,-1.644468,12.394214,-4.963756,-7.430458,-4.926634,-4.223871,-16.970968,-17.050314,-16.823244,-16.910791,6
46316878,-11.510706,-13.199377,-1.688671,12.355042,-4.911017,-7.444024,-4.962063,-4.289532,-17.022991,-17.102957,-16.875219,-16.962385,6
46318875,-11.466122,-13.181877,-1.715755,12.323999,-4.875183,-7.448816,-4.978275,-4.327011,-17.059278,-17.139292,-16.910839,-16.996193,6
46320873,-11.447859,-13.179350,-1.731491,12.313604,-4.858184,-7.455420,-4.997540,-4.357481,-17.086220,-17.166281,-16.938305,-17.022228,6
46322871,-11.461067,-13.186979,-1.725912,12.324023,-4.867578,-7.456446,-4.998112,-4.361773,-17.089367,-17.169333,-16.941643,-17.026186,6
46324869,-11.505079,-13.202715,-1.697636,12.353897,-4.903722,-7.450175,-4.982901,-4.332685,-17.066574,-17.145967,-16.919231,-17.005014,6
46326867,-11.572838,-13.221836,-1.648998,12.397337,-4.961920,-7.435417,-4.953718,-4.270554,-17.016077,-17.095280,-16.868353,-16.956663,6
46328865,-11.640596,-13.244486,-1.603889,12.442541,-5.018353,-7.424188,-4.921913,-4.202938,-16.959620,-17.038918,-16.811466,-16.902256,6
46330863,-11.673498,-13.257694,-1.584196,12.465596,-5.044651,-7.420945,-4.903889,-4.166031,-16.925049,-17.005396,-16.777563,-16.869402,6
46332861,-11.661386,-13.257360,-1.595974,12.459373,-5.032706,-7.426667,-4.910803,-4.177237,-16.931152,-17.010498,-16.783285,-16.874886,6
46334859,-11.600542,-13.239622,-1.639080,12.420082,-4.980731,-7.439351,-4.934883,-4.228687,-16.972589,-17.051458,-16.823769,-16.914797,6
46336857,-11.537313,-13.218975,-1.681662,12.378144,-4.927826,-7.450318,-4.965830,-4.291964,-17.023087,-17.102909,-16.875076,-16.965389,6
46338854,-11.491013,-13.199615,-1.708603,12.345314,-4.891205,-7.454109,-4.981613,-4.331303,-17.058945,-17.138720,-16.911364,-17.000628,6
46340852,-11.474419,-13.198805,-1.724386,12.336612,-4.875016,-7.461596,-5.002594,-4.363632,-17.086840,-17.166901,-16.938877,-17.028618,6
46342850,-11.484385,-13.202953,-1.718569,12.343669,-4.882908,-7.460761,-5.002880,-4.365921,-17.090750,-17.170238,-16.942120,-17.031956,6
46344848,-11.524773,-13.215733,-1.690960,12.370253,-4.916906,-7.453346,-4.983807,-4.334021,-17.066431,-17.146873,-16.918659,-17.008781,6
46346846,-11.594582,-13.235617,-1.641035,12.415099,-4.976773,-7.438326,-4.952335,-4.274893,-17.016220,-17.095995,-16.868448,-16.959715,6
46348844,-11.667156,-13.260174,-1.593018,12.463665,-5.037069,-7.426596,-4.920101,-4.209852,-16.960096,-17.039824,-16.811895,-16.904593,6
46350842,-11.700344,-13.272810,-1.572466,12.486577,-5.063939,-7.422638,-4.902697,-4.174471,-16.926003,-17.006207,-16.778660,-16.871595,6
46352840,-11.681414,-13.270473,-1.589060,12.475944,-5.046177,-7.429767,-4.909229,-4.186106,-16.931391,-17.010593,-16.783571,-16.877174,6
46354838,-11.617231,-13.250399,-1.633167,12.433815,-4.992032,-7.441783,-4.935074,-4.235935,-16.972780,-17.051506,-16.823959,-16.916704,6
46356836,-11.551619,-13.231039,-1.679420,12.391329,-4.936099,-7.455230,-4.970121,-4.301405,-17.024803,-17.104101,-16.876793,-16.969442,6
46358834,-11.504126,-13.215351,-1.711226,12.359738,-4.896450,-7.463288,-4.990864,-4.346943,-17.063475,-17.142916,-16.915798,-17.008829,6
46360832,-11.479568,-13.209200,-1.729631,12.344384,-4.874969,-7.469416,-5.003738,-4.375172,-17.089272,-17.169333,-16.942215,-17.034626,6
46362830,-11.482906,-13.208151,-1.725245,12.345529,-4.878831,-7.466698,-4.998255,-4.368544,-17.089176,-17.169189,-16.941452,-17.033195,6
46364828,-11.523581,-13.219786,-1.696205,12.371683,-4.913688,-7.457995,-4.987907,-4.339743,-17.066526,-17.146826,-16.918659,-17.011118,6
46366825,-11.593914,-13.243818,-1.649904,12.418866,-4.972005,-7.446861,-4.961967,-4.282618,-17.018175,-17.098141,-16.870356,-16.963863,6
46368823,-11.663055,-13.267326,-1.604271,12.465191,-5.029392,-7.435799,-4.929876,-4.215431,-16.961527,-17.041636,-16.813898,-16.908264,6
46370821,-11.695385,-13.276815,-1.581430,12.486100,-5.056977,-7.429123,-4.913378,-4.177713,-16.927528,-17.007113,-16.779280,-16.874123,6
46372820,-11.677361,-13.271523,-1.594162,12.474442,-5.041599,-7.432842,-4.917479,-4.186392,-16.931581,-17.011023,-16.782999,-16.878510,6
46374817,-11.611462,-13.248730,-1.637268,12.430096,-4.987097,-7.442999,-4.939175,-4.237175,-16.971588,-17.051458,-16.822863,-16.917419,6
46376815,-11.549759,-13.229132,-1.679373,12.389445,-4.935193,-7.454252,-4.973364,-4.302359,-17.023659,-17.103767,-16.875982,-16.970301,6
46378813,-11.508179,-13.215399,-1.707220,12.361789,-4.900479,-7.461309,-4.995203,-4.348803,-17.062855,-17.142677,-16.915274,-17.009211,6
46380811,-11.484575,-13.206816,-1.722240,12.345695,-4.881167,-7.464528,-5.000782,-4.370785,-17.085791,-17.165709,-16.938019,-17.031336,6
46382809,-11.493158,-13.212490,-1.719332,12.352824,-4.886913,-7.465911,-5.005312,-4.375029,-17.090321,-17.170238,-16.942310,-17.035675,6
46384807,-11.535549,-13.228750,-1.693201,12.382150,-4.921174,-7.460976,-4.990864,-4.344702,-17.068577,-17.148352,-16.920280,-17.013597,6
46386805,-11.603451,-13.250351,-1.646900,12.426901,-4.978275,-7.448626,-4.959726,-4.284430,-17.018366,-17.098379,-16.870308,-16.964674,6
46388803,-11.674500,-13.274622,-1.600122,12.474561,-5.037189,-7.437372,-4.927444,-4.220676,-16.961241,-17.041969,-16.813707,-16.908503,6
46390801,-11.706495,-13.283348,-1.576853,12.494922,-5.064821,-7.430100,-4.908371,-4.183865,-16.926765,-17.006588,-16.779184,-16.873884,6
46392800,-11.688566,-13.276482,-1.587915,12.482524,-5.050325,-7.432199,-4.913330,-4.190540,-16.930676,-17.010307,-16.782618,-16.877508,6
46394798,-11.623955,-13.254023,-1.630068,12.438989,-4.996943,-7.442045,-4.935598,-4.238987,-16.970682,-17.050791,-16.822433,-16.917086,6
46396795,-11.553144,-13.228178,-1.675034,12.390661,-4.939055,-7.451606,-4.961061,-4.296017,-17.019510,-17.098951,-16.871405,-16.965723,6
46398793,-11.508226,-13.213253,-1.705027,12.360740,-4.901600,-7.459140,-4.987097,-4.342890,-17.060280,-17.139339,-16.911554,-17.006063,6
46400791,-11.490059,-13.209200,-1.719141,12.349629,-4.885459,-7.464170,-4.998493,-4.369259,-17.086124,-17.165804,-16.937923,-17.032146,6
46402789,-11.497927,-13.210106,-1.712179,12.354016,-4.892874,-7.461143,-4.995918,-4.368496,-17.089176,-17.168427,-16.941023,-17.034292,6
46404788,-11.536312,-13.222313,-1.686001,12.379313,-4.925156,-7.454157,-4.979753,-4.338074,-17.066669,-17.145491,-16.918278,-17.012119,6
46406788,-11.584949,-13.225365,-1.640415,12.405157,-4.972267,-7.432890,-4.899311,-4.229689,-16.998959,-17.078972,-16.849709,-16.939831,6
46408786,-11.618042,-13.216877,-1.598835,12.417459,-5.009604,-7.407856,-4.832602,-4.127216,-16.931009,-17.011213,-16.780090,-16.863585,6
46410784,-11.649179,-13.222265,-1.573086,12.435722,-5.038047,-7.397676,-4.881096,-4.146671,-16.917896,-16.997528,-16.769600,-16.855097,6
46412784,-11.638737,-13.222027,-1.583290,12.430382,-5.027723,-7.402658,-4.891968,-4.161930,-16.923952,-17.004061,-16.776180,-16.862535,6
46414781,-11.577892,-13.204861,-1.626968,12.391376,-4.975462,-7.415915,-4.915524,-4.211712,-16.963673,-17.044497,-16.815996,-16.902208,6
46416778,-11.512041,-13.184643,-1.672602,12.348342,-4.919720,-7.428622,-4.944229,-4.270124,-17.014837,-17.094326,-16.866302,-16.950226,6
46418776,-11.469746,-13.170290,-1.700544,12.320018,-4.884601,-7.435417,-4.970121,-4.318523,-17.055035,-17.134142,-16.906881,-16.988754,6
46420774,-11.451292,-13.169718,-1.718426,12.310505,-4.866433,-7.444072,-4.984903,-4.349518,-17.082596,-17.161655,-16.933727,-17.016125,6
46422772,-11.460638,-13.175106,-1.714468,12.317872,-4.873085,-7.444787,-4.985237,-4.352140,-17.085981,-17.165709,-16.937923,-17.021465,6
46424770,-11.502600,-13.192225,-1.689625,12.347412,-4.906487,-7.440925,-4.970503,-4.323912,-17.064238,-17.143059,-16.915560,-17.001486,6
46426768,-11.571169,-13.214684,-1.643515,12.392926,-4.963827,-7.429099,-4.941082,-4.266310,-17.015266,-17.094231,-16.866302,-16.954994,6
46428766,-11.640120,-13.238287,-1.598167,12.439203,-5.020976,-7.418227,-4.910183,-4.202890,-16.958046,-17.037344,-16.810036,-16.899824,6
46430764,-11.673689,-13.249588,-1.575899,12.461638,-5.048895,-7.412744,-4.891920,-4.165983,-16.922808,-17.002678,-16.775036,-16.866016,6
46432762,-11.660671,-13.247299,-1.586628,12.453985,-5.037022,-7.416964,-4.897547,-4.173613,-16.926718,-17.006207,-16.778755,-16.870356,6
46434761,-11.602211,-13.227892,-1.625681,12.415051,-4.988265,-7.426786,-4.922438,-4.224396,-16.967344,-17.046499,-16.819048,-16.910791,6
46436759,-11.534071,-13.205528,-1.671457,12.369800,-4.931307,-7.438493,-4.949999,-4.284334,-17.018175,-17.097521,-16.869783,-16.961002,6
46438759,-11.489964,-13.191652,-1.701689,12.340808,-4.894137,-7.446671,-4.974461,-4.333115,-17.057991,-17.137384,-16.909885,-17.000961,6
46440758,-11.453390,-13.167953,-1.714563,12.310672,-4.869413,-7.441258,-4.934216,-4.313040,-17.066097,-17.146492,-16.915369,-16.996956,6
46442756,-11.425447,-13.141155,-1.715708,12.283301,-4.854870,-7.428432,-4.907417,-4.287577,-17.061043,-17.140961,-16.907930,-16.939116,6
46444754,-11.467457,-13.157558,-1.690102,12.312508,-4.888678,-7.423830,-4.960203,-4.318047,-17.061186,-17.141533,-16.910362,-16.922855,6
46446752,-11.540699,-13.182783,-1.642084,12.361741,-4.949307,-7.412434,-4.936695,-4.264498,-17.014170,-17.093992,-16.864443,-16.905880,6
46448750,-11.612320,-13.208628,-1.596308,12.410474,-5.008006,-7.402468,-4.904413,-4.198885,-16.957331,-17.037201,-16.808701,-16.874361,6
46450748,-11.648846,-13.220739,-1.571894,12.434793,-5.038476,-7.396317,-4.886389,-4.161167,-16.922426,-17.002535,-16.774178,-16.849852,6
46452748,-11.635876,-13.219404,-1.583529,12.427640,-5.026174,-7.401466,-4.890013,-4.168701,-16.926050,-17.005444,-16.777802,-16.856337,6
46454745,-11.575031,-13.198423,-1.623392,12.386727,-4.975820,-7.410908,-4.909611,-4.215384,-16.964149,-17.044401,-16.816759,-16.894674,6
46456743,-11.509895,-13.173676,-1.663780,12.341785,-4.923058,-7.418728,-4.935837,-4.274178,-17.015171,-17.094803,-16.866159,-16.938877,6
46458741,-11.469889,-13.161993,-1.692104,12.315941,-4.888892,-7.427049,-4.963732,-4.323578,-17.056179,-17.135906,-16.907024,-16.974926,6
46460739,-11.455345,-13.164377,-1.709032,12.309861,-4.873157,-7.436705,-4.980135,-4.355049,-17.083263,-17.163944,-16.934681,-17.004919,6
46462737,-11.467409,-13.174009,-1.706600,12.320709,-4.880404,-7.440305,-4.983377,-4.359436,-17.088032,-17.167759,-16.939545,-17.013168,6
46464735,-11.508083,-13.190269,-1.682186,12.349176,-4.912949,-7.436228,-4.968929,-4.333305,-17.066908,-17.146683,-16.918373,-16.996670,6
46466733,-11.574936,-13.212299,-1.637363,12.393618,-4.968786,-7.424831,-4.940128,-4.274940,-17.018270,-17.097330,-16.870070,-16.952324,6
46468731,-11.645269,-13.237095,-1.591825,12.441182,-5.026722,-7.414460,-4.908133,-4.207754,-16.960335,-17.040110,-16.812944,-16.898966,6
46470729,-11.678267,-13.248158,-1.569891,12.463212,-5.054188,-7.409024,-4.889917,-4.168558,-16.924953,-17.004251,-16.777134,-16.865587,6
46472727,-11.664057,-13.245058,-1.581001,12.454557,-5.041528,-7.413030,-4.893398,-4.174995,-16.928291,-17.007256,-16.779757,-16.869164,6
46474725,-11.606884,-13.227940,-1.621056,12.417412,-4.992914,-7.424498,-4.916000,-4.224968,-16.967964,-17.047358,-16.819811,-16.908503,6
46476723,-11.546898,-13.212538,-1.665640,12.379718,-4.940629,-7.439089,-4.950428,-4.291868,-17.020273,-17.100477,-16.872454,-16.960287,6
46478721,-11.500549,-13.201046,-1.700497,12.350798,-4.900026,-7.450771,-4.974651,-4.340458,-17.060852,-17.140484,-16.912746,-17.000961,6
46480720,-11.479139,-13.196182,-1.717043,12.337661,-4.881048,-7.456613,-4.987240,-4.366207,-17.086935,-17.166567,-16.938829,-17.026711,6
46482718,-11.481810,-13.193417,-1.711607,12.337613,-4.885101,-7.452512,-4.981422,-4.360771,-17.087555,-17.167425,-16.939354,-17.026043,6
46484716,-11.520910,-13.207293,-1.686382,12.364101,-4.917264,-7.446837,-4.970217,-4.335451,-17.067623,-17.147160,-16.919231,-17.005873,6
46486714,-11.590433,-13.232994,-1.642561,12.411714,-4.973936,-7.437778,-4.943419,-4.278421,-17.019558,-17.098999,-16.871357,-16.960239,6
46488712,-11.661577,-13.256168,-1.594591,12.458873,-5.033493,-7.425380,-4.912090,-4.210997,-16.962147,-17.042685,-16.814423,-16.905737,6
46490710,-11.695671,-13.270903,-1.575232,12.483287,-5.060220,-7.423067,-4.894638,-4.175854,-16.927099,-17.007589,-16.779709,-16.870975,6
46492708,-11.682081,-13.269329,-1.587248,12.475705,-5.047417,-7.428288,-4.900026,-4.182339,-16.930008,-17.009497,-16.782093,-16.873932,6
46494707,-11.620951,-13.249016,-1.628065,12.434983,-4.996443,-7.438540,-4.923534,-4.228210,-16.969538,-17.048216,-16.820288,-16.911936,6
46496704,-11.551619,-13.225269,-1.673651,12.388444,-4.938984,-7.449460,-4.952288,-4.287720,-17.019129,-17.097998,-16.871166,-16.960335,6
46498702,-11.507845,-13.211155,-1.703310,12.359500,-4.902267,-7.457232,-4.981232,-4.338408,-17.060232,-17.140102,-16.912174,-17.002010,6
46500700,-11.489153,-13.207769,-1.718616,12.348461,-4.885268,-7.463193,-4.997826,-4.367542,-17.087841,-17.167473,-16.939878,-17.029572,6
46502698,-11.497688,-13.213539,-1.715851,12.355614,-4.890919,-7.464695,-4.999018,-4.370546,-17.091751,-17.171812,-16.944170,-17.034149,6
46504696,-11.537123,-13.228464,-1.691341,12.382793,-4.922891,-7.459903,-4.987192,-4.344511,-17.071199,-17.151260,-16.923094,-17.014074,6
46506694,-11.601400,-13.249540,-1.648140,12.425470,-4.976630,-7.448840,-4.957771,-4.285717,-17.022419,-17.103243,-16.874456,-16.966820,6
46508694,-11.667776,-13.270187,-1.602411,12.468982,-5.032682,-7.436299,-4.923105,-4.216385,-16.965055,-17.044640,-16.816664,-16.910172,6
46510693,-11.673164,-13.255119,-1.581955,12.464142,-5.045605,-7.418537,-4.833794,-4.114246,-16.907024,-16.986465,-16.754675,-16.842175,6
46512694,-11.624098,-13.227749,-1.603651,12.425923,-5.010223,-7.415700,-4.838085,-4.120636,-16.910219,-16.990709,-16.759539,-16.834450,6
46514690,-11.567402,-13.204622,-1.637220,12.386012,-4.965091,-7.420921,-4.914951,-4.217911,-16.966009,-17.046452,-16.817522,-16.890383,6
46516687,-11.508751,-13.188028,-1.679277,12.348390,-4.914737,-7.433653,-4.951429,-4.285908,-17.020035,-17.100191,-16.871595,-16.943264,6
46518686,-11.465693,-13.175392,-1.709700,12.320542,-4.877996,-7.442546,-4.970407,-4.328537,-17.058563,-17.138624,-16.909409,-16.976070,6
46520684,-11.446381,-13.175440,-1.729059,12.310910,-4.858661,-7.452250,-4.991245,-4.364204,-17.087030,-17.167425,-16.938639,-16.999388,6
46522682,-11.459208,-13.182497,-1.723289,12.320852,-4.867959,-7.452893,-4.994440,-4.367161,-17.091751,-17.171907,-16.943455,-17.009163,6
46524680,-11.499405,-13.199282,-1.699877,12.349343,-4.899764,-7.449579,-4.982758,-4.341173,-17.071295,-17.151356,-16.922808,-16.994858,6
46526678,-11.565828,-13.224173,-1.658344,12.395000,-4.953742,-7.441258,-4.957294,-4.283905,-17.023897,-17.103767,-16.875362,-16.953516,6
46528676,-11.641693,-13.250828,-1.609135,12.446260,-5.016279,-7.429981,-4.924583,-4.215813,-16.966295,-17.046356,-16.818333,-16.901302,6
46530674,-11.681843,-13.264084,-1.582241,12.472963,-5.049801,-7.423162,-4.905510,-4.177666,-16.929817,-17.009592,-16.782093,-16.868401,6
46532673,-11.672211,-13.261652,-1.589441,12.466931,-5.041385,-7.425547,-4.908562,-4.182577,-16.932058,-17.011499,-16.784143,-16.871119,6
46534671,-11.609793,-13.241768,-1.631975,12.425780,-4.988909,-7.436872,-4.932737,-4.231787,-16.969776,-17.049742,-16.822910,-16.909075,6
46536668,-11.538696,-13.216925,-1.678228,12.377810,-4.930234,-7.447577,-4.962921,-4.292011,-17.020655,-17.100477,-16.872644,-16.957617,6
46538666,-11.491156,-13.201714,-1.710558,12.346435,-4.890299,-7.456136,-4.990435,-4.341173,-17.061663,-17.141294,-16.913414,-16.995764,6
46540664,-11.472130,-13.197279,-1.725149,12.334704,-4.873490,-7.461214,-5.006123,-4.371500,-17.090034,-17.169333,-16.941404,-17.024565,6
46542662,-11.482477,-13.202381,-1.719904,12.342429,-4.881287,-7.461143,-5.005836,-4.372692,-17.094994,-17.174053,-16.945696,-17.030525,6
46544660,-11.522150,-13.214636,-1.692486,12.368393,-4.914832,-7.453561,-4.990530,-4.342270,-17.073822,-17.153120,-16.925192,-17.011213,6
46546658,-11.589861,-13.236952,-1.647091,12.413406,-4.971385,-7.442021,-4.960632,-4.282093,-17.024517,-17.104101,-16.876221,-16.965294,6
46548656,-11.660767,-13.260555,-1.599789,12.460661,-5.030489,-7.430172,-4.928160,-4.216480,-16.967106,-17.046881,-16.819763,-16.909933,6
46550654,-11.692333,-13.268566,-1.576233,12.480450,-5.058050,-7.422400,-4.908466,-4.175138,-16.929913,-17.010546,-16.783094,-16.873789,6
46552653,-11.679506,-13.265467,-1.585960,12.472486,-5.046773,-7.425714,-4.908848,-4.178286,-16.931009,-17.011261,-16.783428,-16.875505,6
46554650,-11.620712,-13.247585,-1.626873,12.434149,-4.996920,-7.437229,-4.932451,-4.227114,-16.969585,-17.049408,-16.821575,-16.912365,6
46556648,-11.553860,-13.222551,-1.668692,12.388206,-4.942584,-7.445621,-4.959440,-4.285860,-17.019701,-17.099524,-16.871262,-16.960382,6
46558646,-11.511755,-13.207245,-1.695490,12.359500,-4.908133,-7.451367,-4.985285,-4.334927,-17.060375,-17.140055,-16.912413,-17.000198,6
46560644,-11.489582,-13.202429,-1.712847,12.346005,-4.888368,-7.457638,-4.998875,-4.366446,-17.088127,-17.167664,-16.940165,-17.028809,6
46562642,-11.495781,-13.204956,-1.709175,12.350368,-4.893303,-7.457066,-4.998493,-4.370260,-17.093134,-17.172146,-16.944742,-17.034054,6
46564640,-11.531019,-13.215637,-1.684618,12.373328,-4.923201,-7.450128,-4.984713,-4.341650,-17.072010,-17.151308,-16.923904,-17.014074,6
46566637,-11.595154,-13.236094,-1.640940,12.415624,-4.977107,-7.438517,-4.954481,-4.282379,-17.023182,-17.102814,-16.875315,-16.967010,6
46568635,-11.666727,-13.260269,-1.593542,12.463498,-5.036592,-7.426906,-4.921055,-4.215813,-16.965675,-17.045927,-16.817856,-16.910505,6
46570633,-11.700821,-13.269854,-1.569033,12.485337,-5.065894,-7.419443,-4.902554,-4.175472,-16.929150,-17.008638,-16.780949,-16.874027,6
46572632,-11.684942,-13.264084,-1.579142,12.474513,-5.052900,-7.421613,-4.903364,-4.180193,-16.929817,-17.009068,-16.781855,-16.875362,6
46574629,-11.614799,-13.233232,-1.618433,12.424016,-4.998183,-7.425833,-4.916859,-4.220724,-16.963959,-17.042828,-16.814899,-16.906929,6
46576627,-11.543179,-13.207197,-1.664019,12.375188,-4.939580,-7.435608,-4.949331,-4.284191,-17.015553,-17.094660,-16.866159,-16.956615,6
46578625,-11.498976,-13.195610,-1.696634,12.347293,-4.901171,-7.446122,-4.978991,-4.336309,-17.058182,-17.137337,-16.909504,-16.998625,6
46580623,-11.477995,-13.188314,-1.710320,12.333155,-4.883838,-7.449317,-4.996681,-4.366541,-17.086649,-17.165709,-16.939116,-17.027426,6
46582620,-11.486149,-13.191032,-1.704884,12.338591,-4.890633,-7.447958,-4.995728,-4.367638,-17.091465,-17.170525,-16.943741,-17.033100,6
46584618,-11.527681,-13.210249,-1.682568,12.368965,-4.922557,-7.446408,-4.983616,-4.342031,-17.071533,-17.150879,-16.923571,-17.013693,6
46586616,-11.593676,-13.233232,-1.639557,12.413454,-4.977059,-7.436395,-4.954243,-4.283857,-17.023420,-17.103148,-16.875505,-16.967344,6
46588614,-11.664963,-13.256598,-1.591635,12.460780,-5.036664,-7.424116,-4.920197,-4.214144,-16.965580,-17.045641,-16.817760,-16.911030,6
46590612,-11.703539,-13.268661,-1.565123,12.486100,-5.069208,-7.416892,-4.900265,-4.173613,-16.928482,-17.008638,-16.780949,-16.874599,6
46592611,-11.692381,-13.264942,-1.572561,12.478662,-5.059910,-7.418752,-4.904127,-4.177999,-16.928864,-17.009163,-16.781425,-16.875648,6
46594608,-11.630106,-13.242817,-1.612711,12.436461,-5.008698,-7.427764,-4.924965,-4.222727,-16.966438,-17.046309,-16.817760,-16.911554,6
46596606,-11.555481,-13.216591,-1.661110,12.386036,-4.947186,-7.438850,-4.954529,-4.282522,-17.016697,-17.096329,-16.868162,-16.960239,6
46598604,-11.506319,-13.200378,-1.694059,12.353349,-4.906130,-7.447219,-4.981518,-4.331779,-17.058563,-17.137718,-16.910267,-17.001534,6
46600602,-11.487865,-13.196230,-1.708364,12.342048,-4.889750,-7.452297,-4.996872,-4.364586,-17.086315,-17.165995,-16.939020,-17.029715,6
46602600,-11.492443,-13.197279,-1.704836,12.344861,-4.893804,-7.451057,-4.999590,-4.367399,-17.091274,-17.171144,-16.944313,-17.034817,6
46604597,-11.525583,-13.208008,-1.682425,12.366796,-4.921579,-7.445216,-4.987669,-4.339504,-17.070961,-17.151070,-16.923714,-17.015743,6
46606595,-11.588192,-13.226271,-1.638079,12.407231,-4.975057,-7.432175,-4.959202,-4.282331,-17.022991,-17.103529,-16.875219,-16.968918,6
46608594,-11.659145,-13.249350,-1.590204,12.454247,-5.034471,-7.419777,-4.927015,-4.215813,-16.965151,-17.045641,-16.817856,-16.911793,6
46610594,-11.684990,-13.250160,-1.565170,12.467575,-5.059910,-7.407665,-4.881954,-4.150486,-16.918898,-16.999292,-16.770220,-16.863394,6
46612594,-11.631203,-13.212490,-1.581287,12.421846,-5.024958,-7.396889,-4.811859,-4.086685,-16.895580,-16.976023,-16.744328,-16.826916,6
46614590,-11.561346,-13.185263,-1.623917,12.373304,-4.968715,-7.404590,-4.903221,-4.193735,-16.957712,-17.037344,-16.808128,-16.885328,6
46616587,-11.500454,-13.167477,-1.667023,12.333965,-4.916716,-7.417250,-4.952049,-4.271889,-17.015219,-17.095184,-16.865826,-16.942072,6
46618585,-11.456919,-13.150072,-1.693153,12.303495,-4.881883,-7.421613,-4.969931,-4.313421,-17.053461,-17.133713,-16.904879,-16.975832,6
46620583,-11.443567,-13.150978,-1.707411,12.297273,-4.868078,-7.429194,-4.988670,-4.346037,-17.083645,-17.163086,-16.934633,-17.004251,6
46622580,-11.457872,-13.159084,-1.701212,12.308478,-4.878330,-7.430148,-4.991674,-4.352188,-17.088985,-17.168427,-16.939974,-17.013407,6
46624578,-11.501741,-13.174200,-1.672459,12.337971,-4.914641,-7.423329,-4.978943,-4.326677,-17.069101,-17.148876,-16.920424,-16.998863,6
46626576,-11.570072,-13.197517,-1.627445,12.383795,-4.971313,-7.412481,-4.949713,-4.270506,-17.022181,-17.101574,-16.873693,-16.956186,6
46628574,-11.639452,-13.222170,-1.582718,12.430811,-5.028367,-7.402444,-4.916143,-4.203510,-16.964245,-17.043877,-16.816282,-16.902208,6
46630572,-11.673403,-13.233185,-1.559782,12.453294,-5.056810,-7.396483,-4.897451,-4.165268,-16.926765,-17.006445,-16.778278,-16.866970,6
46632570,-11.663485,-13.231707,-1.568222,12.447596,-5.047631,-7.399964,-4.899263,-4.167509,-16.926670,-17.005968,-16.777945,-16.867018,6
46634568,-11.604214,-13.214540,-1.610327,12.409377,-4.996943,-7.412434,-4.922724,-4.214191,-16.964245,-17.043686,-16.815948,-16.904211,6
46636566,-11.532640,-13.192701,-1.660061,12.362671,-4.936290,-7.426381,-4.954910,-4.275465,-17.015171,-17.094612,-16.866970,-16.953659,6
46638564,-11.488152,-13.179731,-1.691580,12.333941,-4.898286,-7.435656,-4.984093,-4.326630,-17.056894,-17.136097,-16.908836,-16.994190,6
46640562,-11.468983,-13.177776,-1.708794,12.323380,-4.880095,-7.443285,-5.002117,-4.358339,-17.085934,-17.165375,-16.937780,-17.023039,6
46642560,-11.475039,-13.180208,-1.705170,12.327623,-4.884934,-7.442689,-5.002165,-4.361677,-17.091227,-17.170477,-16.942549,-17.028666,6
46644558,-11.508894,-13.187218,-1.678324,12.348056,-4.915285,-7.432771,-4.981375,-4.328585,-17.068577,-17.148590,-16.920376,-17.007446,6
46646556,-11.565447,-13.198709,-1.633263,12.382078,-4.966092,-7.415986,-4.945087,-4.264450,-17.018080,-17.097425,-16.869831,-16.956425,6
46648554,-11.639309,-13.225746,-1.586437,12.432528,-5.026436,-7.406092,-4.920292,-4.202652,-16.962576,-17.041683,-16.814995,-16.903496,6
46650552,-11.678648,-13.239765,-1.561117,12.459207,-5.058765,-7.400441,-4.906225,-4.164791,-16.925430,-17.005396,-16.778326,-16.868210,6
46652551,-11.667824,-13.241625,-1.573801,12.454724,-5.047011,-7.407713,-4.911613,-4.171324,-16.926098,-17.006111,-16.778088,-16.869116,6
46654548,-11.605740,-13.223982,-1.618242,12.414861,-4.993749,-7.421112,-4.933310,-4.217005,-16.963434,-17.042351,-16.815233,-16.905355,6
46656546,-11.533546,-13.201952,-1.668406,12.367749,-4.932570,-7.435179,-4.963923,-4.280901,-17.014933,-17.094421,-16.866589,-16.954708,6
46658544,-11.490250,-13.194275,-1.704025,12.342262,-4.893112,-7.449150,-4.995584,-4.336929,-17.057562,-17.137480,-16.909504,-16.997480,6
46660542,-11.474323,-13.195324,-1.721001,12.334824,-4.876661,-7.458162,-5.011654,-4.368114,-17.086315,-17.166328,-16.937971,-17.026758,6
46662540,-11.481190,-13.200331,-1.719141,12.340760,-4.881024,-7.459736,-5.013418,-4.371452,-17.092133,-17.172146,-16.943598,-17.033434,6
46664538,-11.515427,-13.214397,-1.698971,12.364912,-4.908228,-7.456684,-5.000496,-4.346848,-17.073011,-17.152739,-16.924429,-17.014933,6
46666536,-11.578941,-13.235044,-1.656103,12.406993,-4.961419,-7.445574,-4.971981,-4.287767,-17.025805,-17.105865,-16.877079,-16.968203,6
46668534,-11.649942,-13.257837,-1.607895,12.453890,-5.021024,-7.432866,-4.937792,-4.219007,-16.968250,-17.048216,-16.819954,-16.911840,6
46670532,-11.689854,-13.272762,-1.582909,12.481308,-5.053473,-7.427835,-4.918814,-4.178905,-16.930532,-17.010403,-16.781998,-16.875029,6
46672531,-11.678982,-13.272429,-1.593447,12.475705,-5.042768,-7.432938,-4.920626,-4.181719,-16.929722,-17.009354,-16.781282,-16.874647,6
46674528,-11.618042,-13.254023,-1.635981,12.436032,-4.991031,-7.445002,-4.942369,-4.227352,-16.966391,-17.046165,-16.817904,-16.911459,6
46676526,-11.550140,-13.234091,-1.683950,12.392116,-4.933095,-7.459021,-4.977560,-4.292917,-17.019415,-17.099428,-16.871262,-16.964483,6
46678524,-11.504269,-13.219404,-1.715136,12.361836,-4.894567,-7.467270,-4.998064,-4.340267,-17.059422,-17.139482,-16.911411,-17.003822,6
46680522,-11.475849,-13.209867,-1.734018,12.342858,-4.870915,-7.471943,-5.007172,-4.367733,-17.085409,-17.165756,-16.937304,-17.028522,6
46682520,-11.480188,-13.213491,-1.733303,12.346840,-4.873443,-7.473397,-5.012655,-4.376698,-17.093277,-17.172718,-16.945171,-17.036057,6
46684518,-11.518192,-13.225889,-1.707697,12.372041,-4.905248,-7.466793,-4.999495,-4.350948,-17.075157,-17.154217,-16.926527,-17.018175,6
46686516,-11.583042,-13.246155,-1.663113,12.414598,-4.959965,-7.454634,-4.970121,-4.291201,-17.027187,-17.106724,-16.878700,-16.971922,6
46688514,-11.654377,-13.269472,-1.615095,12.461925,-5.019641,-7.442284,-4.935598,-4.224110,-16.969776,-17.049026,-16.821671,-16.915321,6
46690512,-11.695337,-13.283348,-1.588011,12.489343,-5.053663,-7.435679,-4.914761,-4.184389,-16.930628,-17.010832,-16.783476,-16.876793,6
46692511,-11.683989,-13.282585,-1.598597,12.483287,-5.042696,-7.440591,-4.916334,-4.186916,-16.929674,-17.009592,-16.781616,-16.876459,6
46694508,-11.624289,-13.262701,-1.638412,12.443495,-4.992938,-7.450557,-4.935837,-4.229259,-16.965437,-17.044687,-16.818237,-16.912031,6
46696506,-11.556578,-13.238907,-1.682329,12.397742,-4.937124,-7.460618,-4.966831,-4.289818,-17.015934,-17.095661,-16.869068,-16.960955,6
46698504,-11.508512,-13.221836,-1.713324,12.365174,-4.897594,-7.467580,-4.994297,-4.340982,-17.057371,-17.137480,-16.910982,-17.002344,6
46700502,-11.486626,-13.218117,-1.731491,12.352371,-4.877567,-7.474804,-5.011368,-4.373312,-17.086935,-17.166710,-16.940165,-17.031813,6
46702500,-11.491156,-13.219261,-1.728106,12.355208,-4.881525,-7.473683,-5.012035,-4.376793,-17.093515,-17.173004,-16.945696,-17.038155,6
46704498,-11.525202,-13.228798,-1.703596,12.377000,-4.910803,-7.466197,-4.998207,-4.348469,-17.074156,-17.153931,-16.925621,-17.019606,6
46706496,-11.588812,-13.246536,-1.657724,12.417674,-4.965544,-7.452130,-4.968643,-4.290771,-17.026567,-17.106342,-16.878605,-16.973066,6
46708493,-11.659861,-13.271856,-1.611996,12.465858,-5.023932,-7.441926,-4.937124,-4.224253,-16.968966,-17.049217,-16.821289,-16.916132,6
46710491,-11.699963,-13.283348,-1.583385,12.491655,-5.058289,-7.433367,-4.914379,-4.180145,-16.929483,-17.009735,-16.782093,-16.876841,6
46712491,-11.694384,-13.280344,-1.585960,12.487364,-5.054212,-7.433152,-4.916477,-4.180145,-16.927814,-17.008018,-16.780329,-16.875315,6
46714490,-11.634541,-13.260317,-1.625776,12.447429,-5.004382,-7.443047,-4.934406,-4.220915,-16.962528,-17.043066,-16.814470,-16.909266,6
46716487,-11.535978,-13.210964,-1.674986,12.373471,-4.930496,-7.442975,-4.888010,-4.212809,-16.988850,-17.069101,-16.836739,-16.924047,6
46718485,-11.459446,-13.173199,-1.713753,12.316322,-4.872847,-7.443476,-4.941988,-4.285717,-17.040968,-17.120934,-16.890287,-16.969347,6
46720483,-11.430264,-13.160038,-1.729774,12.295151,-4.850245,-7.444906,-4.992008,-4.349995,-17.081547,-17.160845,-16.932440,-17.010641,6
46722481,-11.439180,-13.163376,-1.724195,12.301278,-4.857492,-7.443786,-4.995680,-4.358959,-17.088366,-17.167759,-16.940260,-17.016983,6
46724479,-11.483145,-13.182354,-1.699209,12.332749,-4.891968,-7.440782,-4.985237,-4.338741,-17.070723,-17.151213,-16.922808,-17.003298,6
46726477,-11.555147,-13.208103,-1.652956,12.381625,-4.951096,-7.430530,-4.954147,-4.282331,-17.023563,-17.104197,-16.875601,-16.959238,6
46728475,-11.620331,-13.223314,-1.602983,12.421823,-5.008674,-7.413149,-4.907179,-4.201126,-16.959476,-17.040300,-16.810417,-16.892862,6
46730473,-11.659479,-13.236332,-1.576853,12.447906,-5.041313,-7.406592,-4.894304,-4.162264,-16.921854,-17.001820,-16.772842,-16.851854,6
46732471,-11.660624,-13.244581,-1.583958,12.452602,-5.038333,-7.414269,-4.907322,-4.174662,-16.924095,-17.003870,-16.775703,-16.856670,6
46734469,-11.607456,-13.230371,-1.622915,12.418914,-4.992270,-7.426643,-4.929829,-4.222393,-16.960669,-17.040825,-16.812611,-16.894102,6
46736467,-11.537409,-13.208055,-1.670647,12.372732,-4.933381,-7.439351,-4.959869,-4.283333,-17.012072,-17.092180,-16.863012,-16.941166,6
46738464,-11.490822,-13.194561,-1.703739,12.342691,-4.893541,-7.449150,-4.990530,-4.334927,-17.054749,-17.134476,-16.905737,-16.980362,6
46740462,-11.470413,-13.192987,-1.722574,12.331700,-4.873919,-7.457781,-5.011415,-4.368782,-17.085123,-17.164564,-16.936493,-17.011452,6
46742460,-11.477900,-13.198614,-1.720715,12.338257,-4.878592,-7.459664,-5.014133,-4.374170,-17.091608,-17.171383,-16.942549,-17.020416,6
46744458,-11.514711,-13.212824,-1.698112,12.363768,-4.908299,-7.455468,-5.002069,-4.348135,-17.072964,-17.153072,-16.924524,-17.005873,6
46746456,-11.576700,-13.232946,-1.656246,12.404823,-4.960227,-7.444596,-4.972410,-4.292059,-17.027569,-17.106676,-16.879272,-16.963530,6
46748454,-11.648989,-13.256359,-1.607370,12.452674,-5.020809,-7.431865,-4.937029,-4.223061,-16.969633,-17.049122,-16.821480,-16.908503,6
46750451,-11.691284,-13.271475,-1.580191,12.481380,-5.055547,-7.425833,-4.916143,-4.181147,-16.929722,-17.010021,-16.781712,-16.871262,6
46752450,-11.681938,-13.273096,-1.591158,12.477517,-5.045390,-7.432127,-4.919195,-4.186058,-16.929054,-17.008591,-16.780806,-16.871405,6
46754447,-11.623001,-13.254929,-1.631927,12.438965,-4.995537,-7.443428,-4.944754,-4.237747,-16.967201,-17.045784,-16.818666,-16.908026,6
46756446,-11.557388,-13.232088,-1.674700,12.394738,-4.941344,-7.453394,-4.970503,-4.295921,-17.018366,-17.097282,-16.868782,-16.958475,6
46758443,-11.505222,-13.210011,-1.704788,12.357616,-4.900217,-7.457399,-4.987812,-4.336786,-17.055368,-17.135239,-16.906452,-16.994810,6
46760441,-11.480331,-13.201141,-1.720810,12.340736,-4.879761,-7.460976,-5.006504,-4.368734,-17.085552,-17.164803,-16.936541,-17.022943,6
46762439,-11.486197,-13.202047,-1.715851,12.344122,-4.885173,-7.458949,-5.011415,-4.375410,-17.092848,-17.172766,-16.943550,-17.031002,6
46764437,-11.523914,-13.215256,-1.691341,12.369585,-4.916286,-7.453299,-4.998207,-4.347134,-17.072868,-17.153692,-16.925049,-17.013597,6
46766435,-11.588192,-13.232994,-1.644802,12.410593,-4.971695,-7.438898,-4.967499,-4.288483,-17.026281,-17.106867,-16.878986,-16.968632,6
46768433,-11.659813,-13.255453,-1.595640,12.457633,-5.032086,-7.425547,-4.931259,-4.220009,-16.968346,-17.048502,-16.821051,-16.911936,6
46770431,-11.699963,-13.267660,-1.567698,12.483811,-5.066133,-7.417679,-4.911423,-4.176807,-16.929245,-17.008400,-16.780710,-16.873026,6
46772430,-11.686611,-13.265753,-1.579142,12.476182,-5.053735,-7.422447,-4.912329,-4.180098,-16.927147,-17.006445,-16.778851,-16.871834,6
46774428,-11.625528,-13.248396,-1.622868,12.436962,-5.001330,-7.435632,-4.931879,-4.225540,-16.962671,-17.042446,-16.814995,-16.907549,6
46776425,-11.558723,-13.229179,-1.670456,12.393951,-4.944134,-7.449818,-4.968882,-4.294825,-17.016506,-17.096710,-16.869402,-16.960669,6
46778424,-11.512995,-13.214254,-1.701260,12.363625,-4.905868,-7.457757,-4.993534,-4.343939,-17.058468,-17.138338,-16.910267,-17.002153,6
46780422,-11.487770,-13.203716,-1.715946,12.345743,-4.885912,-7.459831,-5.004120,-4.372597,-17.086363,-17.165375,-16.937828,-17.029715,6
46782420,-11.487198,-13.201284,-1.714087,12.344241,-4.886556,-7.457685,-4.996586,-4.370308,-17.090273,-17.168713,-16.941452,-17.031479,6
46784418,-11.525679,-13.218069,-1.692390,12.371874,-4.916644,-7.455230,-4.989815,-4.348230,-17.073202,-17.152357,-16.925049,-17.016077,6
46786416,-11.591816,-13.240194,-1.648378,12.416005,-4.971719,-7.444286,-4.962301,-4.290581,-17.027235,-17.107010,-16.879272,-16.972160,6
46788414,-11.666632,-13.264275,-1.597643,12.465453,-5.034494,-7.430959,-4.929399,-4.221678,-16.969299,-17.048883,-16.821480,-16.914749,6
46790412,-11.704588,-13.275480,-1.570892,12.490034,-5.066848,-7.423186,-4.910421,-4.179430,-16.929674,-17.009544,-16.782284,-16.875839,6
46792410,-11.696386,-13.274145,-1.577759,12.485266,-5.059314,-7.425952,-4.913187,-4.182434,-16.927528,-17.007208,-16.780281,-16.873646,6
46794408,-11.637974,-13.258171,-1.620197,12.448072,-5.008888,-7.439184,-4.935122,-4.229212,-16.963863,-17.043161,-16.815138,-16.909409,6
46796405,-11.566925,-13.236189,-1.669264,12.401557,-4.948831,-7.452726,-4.969025,-4.293919,-17.017221,-17.096567,-16.868353,-16.961908,6
46798403,-11.519957,-13.223124,-1.703167,12.371540,-4.908395,-7.463145,-4.994774,-4.346704,-17.059469,-17.138958,-16.910839,-17.004299,6
46800401,-11.495399,-13.215923,-1.720524,12.355661,-4.887438,-7.468224,-5.007696,-4.378271,-17.088032,-17.167234,-16.939497,-17.032909,6
46802399,-11.497450,-13.215685,-1.718235,12.356567,-4.889607,-7.466960,-5.009985,-4.383564,-17.094421,-17.174101,-16.946268,-17.040014,6
46804398,-11.529160,-13.226414,-1.697254,12.377787,-4.915953,-7.461834,-4.996586,-4.357290,-17.075777,-17.155457,-16.927481,-17.021513,6
46806396,-11.586142,-13.239861,-1.653719,12.413001,-4.966211,-7.446790,-4.963779,-4.295158,-17.027807,-17.107105,-16.879272,-16.972733,6
46808394,-11.659908,-13.268757,-1.608849,12.464333,-5.025530,-7.438803,-4.937458,-4.231977,-16.972065,-17.051888,-16.824245,-16.917801,6
46810392,-11.702108,-13.285112,-1.583004,12.493610,-5.059552,-7.434058,-4.917097,-4.188633,-16.931915,-17.012167,-16.784763,-16.879320,6
46812392,-11.694241,-13.283253,-1.589012,12.488747,-5.052614,-7.436132,-4.916573,-4.185629,-16.928434,-17.008829,-16.781378,-16.876173,6
46814388,-11.637831,-13.262892,-1.625061,12.450361,-5.006385,-7.443976,-4.936266,-4.226971,-16.962814,-17.043304,-16.815424,-16.910124,6
46816387,-11.571026,-13.238239,-1.667213,12.404633,-4.951906,-7.452726,-4.967165,-4.290915,-17.015743,-17.095852,-16.867065,-16.961670,6
46818386,-11.503172,-13.200569,-1.697397,12.351871,-4.902887,-7.448983,-4.928780,-4.282570,-17.036724,-17.116117,-16.884804,-16.972494,6
46820384,-11.438179,-13.164663,-1.726484,12.301421,-4.855847,-7.445574,-4.925871,-4.297209,-17.060852,-17.140961,-16.909170,-16.979933,6
46822382,-11.441278,-13.165951,-1.724672,12.303615,-4.858303,-7.445312,-4.992867,-4.362726,-17.088699,-17.168808,-16.939402,-17.008209,6
46824380,-11.482525,-13.182688,-1.700163,12.332606,-4.891181,-7.441425,-4.986382,-4.343081,-17.072439,-17.152977,-16.923857,-16.998005,6
46826378,-11.546564,-13.204670,-1.658106,12.375617,-4.944229,-7.431388,-4.961157,-4.289961,-17.027712,-17.108154,-16.879845,-16.958475,6
46828377,-11.623859,-13.232660,-1.608801,12.428260,-5.007529,-7.420731,-4.930353,-4.223585,-16.970825,-17.050695,-16.822672,-16.906929,6
46830374,-11.669111,-13.250971,-1.581860,12.460041,-5.043626,-7.416415,-4.912663,-4.180765,-16.931581,-17.011023,-16.783190,-16.870642,6
46832375,-11.662531,-13.251305,-1.588774,12.456918,-5.036879,-7.420039,-4.913616,-4.180145,-16.928864,-17.008162,-16.780233,-16.868877,6
46834371,-11.608410,-13.235521,-1.627111,12.421966,-4.990649,-7.431316,-4.936790,-4.226637,-16.964817,-17.044640,-16.816235,-16.904783,6
46836371,-11.539650,-13.211918,-1.672268,12.375784,-4.933691,-7.442093,-4.965544,-4.285479,-17.015934,-17.096090,-16.867113,-16.954660,6
46838366,-11.488008,-13.189650,-1.701641,12.338829,-4.893184,-7.445645,-4.985380,-4.327774,-17.055321,-17.135191,-16.906691,-16.992521,6
46840364,-11.464500,-13.181257,-1.716757,12.322879,-4.873872,-7.449007,-5.000401,-4.358625,-17.083549,-17.164087,-16.935205,-17.018700,6
46842362,-11.472607,-13.186836,-1.714230,12.329721,-4.879189,-7.450533,-5.005455,-4.367876,-17.092276,-17.172194,-16.943979,-17.028522,6
46844360,-11.506844,-13.198423,-1.691580,12.352633,-4.907632,-7.445002,-4.991388,-4.341793,-17.074299,-17.154264,-16.927052,-17.012882,6
46846358,-11.570263,-13.218784,-1.648521,12.394524,-4.960871,-7.433653,-4.962778,-4.286003,-17.029095,-17.109585,-16.881371,-16.969872,6
46848356,-11.646700,-13.241959,-1.595259,12.444329,-5.025721,-7.418609,-4.927111,-4.215717,-16.970634,-17.050409,-16.823006,-16.913176,6
46850354,-11.688900,-13.256645,-1.567745,12.472773,-5.060577,-7.412195,-4.905891,-4.171467,-16.929483,-17.010021,-16.782856,-16.873598,6
46852353,-11.683083,-13.258934,-1.575851,12.471008,-5.053616,-7.417393,-4.905033,-4.171133,-16.926289,-17.006445,-16.779518,-16.870737,6
46854351,-11.625099,-13.239813,-1.614714,12.432456,-5.005193,-7.427263,-4.924440,-4.215765,-16.960812,-17.041159,-16.812658,-16.903925,6
46856348,-11.551619,-13.215637,-1.664019,12.383628,-4.943800,-7.439828,-4.952478,-4.276943,-17.011213,-17.091274,-16.862440,-16.953278,6
46858346,-11.501169,-13.199186,-1.698017,12.350178,-4.901576,-7.448602,-4.978275,-4.328585,-17.053318,-17.133284,-16.905499,-16.994333,6
46860344,-11.477041,-13.196564,-1.719522,12.336802,-4.878759,-7.458043,-4.998732,-4.364204,-17.084694,-17.164516,-16.936922,-17.025328,6
46862343,-11.482239,-13.200569,-1.718330,12.341404,-4.881954,-7.459450,-5.003262,-4.370880,-17.092323,-17.172050,-16.944647,-17.033386,6
46864341,-11.518192,-13.215256,-1.697063,12.366724,-4.910564,-7.456160,-4.993010,-4.348326,-17.075253,-17.155170,-16.927099,-17.017460,6
46866339,-11.579227,-13.235426,-1.656199,12.407327,-4.961514,-7.445812,-4.965591,-4.294062,-17.030048,-17.109823,-16.882277,-16.973734,6
46868337,-11.649609,-13.256931,-1.607323,12.453270,-5.021143,-7.432127,-4.933548,-4.225636,-16.972351,-17.052221,-16.824341,-16.917181,6
46870335,-11.691570,-13.269234,-1.577663,12.480402,-5.056953,-7.423449,-4.909801,-4.181957,-16.931343,-17.011023,-16.783524,-16.876984,6
46872334,-11.688328,-13.268280,-1.579952,12.478304,-5.054188,-7.424116,-4.909611,-4.181576,-16.927004,-17.006350,-16.779184,-16.873312,6
46874331,-11.633110,-13.250971,-1.617861,12.442040,-5.007625,-7.434416,-4.928446,-4.223871,-16.961193,-17.041063,-16.812754,-16.906357,6
46876329,-11.557627,-13.224602,-1.666975,12.391114,-4.945326,-7.445788,-4.954433,-4.283762,-17.012215,-17.091560,-16.863012,-16.955709,6
46878327,-11.507368,-13.209009,-1.701641,12.358189,-4.902864,-7.455325,-4.985046,-4.337883,-17.054844,-17.134285,-16.905832,-16.998720,6
46880325,-11.480665,-13.204002,-1.723337,12.342334,-4.878664,-7.463670,-5.004787,-4.374695,-17.085695,-17.165375,-16.937542,-17.029333,6
46882323,-11.480761,-13.205957,-1.725197,12.343359,-4.877782,-7.465577,-5.007553,-4.381037,-17.094374,-17.173576,-16.945887,-17.037344,6
46884321,-11.515570,-13.218117,-1.702547,12.366843,-4.906511,-7.460332,-4.995060,-4.356098,-17.076683,-17.155933,-16.928482,-17.020941,6
46886319,-11.580420,-13.237762,-1.657343,12.409091,-4.961538,-7.447553,-4.966736,-4.300642,-17.031956,-17.111111,-16.883802,-16.976881,6
46888317,-11.654902,-13.263178,-1.608276,12.459040,-5.023313,-7.435727,-4.931307,-4.230642,-16.972828,-17.052460,-16.825390,-16.919279,6
46890315,-11.696577,-13.276291,-1.579714,12.486434,-5.058432,-7.428002,-4.907846,-4.183054,-16.931057,-17.011166,-16.784334,-16.878557,6
46892314,-11.692619,-13.276482,-1.583862,12.484550,-5.054379,-7.430172,-4.907417,-4.180956,-16.927624,-17.006922,-16.779947,-16.874504,6
46894312,-11.636686,-13.259983,-1.623297,12.448335,-5.006695,-7.441640,-4.930162,-4.227734,-16.962624,-17.041588,-16.814423,-16.908979,6
46896309,-11.565781,-13.241720,-1.675940,12.403750,-4.944921,-7.458830,-4.961109,-4.291630,-17.015219,-17.094231,-16.866922,-16.961527,6
46898307,-11.511183,-13.224077,-1.712894,12.367630,-4.899144,-7.468486,-4.984570,-4.339314,-17.056274,-17.135668,-16.907883,-17.001915,6
46900306,-11.485052,-13.215685,-1.730633,12.350368,-4.877210,-7.473159,-5.000782,-4.373884,-17.086935,-17.166948,-16.938829,-17.032766,6
46902304,-11.482191,-13.209820,-1.727629,12.346005,-4.877281,-7.468724,-4.996920,-4.372406,-17.091084,-17.171335,-16.943312,-17.036963,6
46904302,-11.511135,-13.216543,-1.705408,12.363839,-4.902864,-7.460976,-4.985762,-4.349566,-17.074394,-17.153788,-16.926193,-17.019796,6
46906300,-11.574507,-13.239622,-1.665115,12.407064,-4.954696,-7.452369,-4.961443,-4.298544,-17.030811,-17.110825,-16.883612,-16.977644,6
46908298,-11.647797,-13.265944,-1.618147,12.456870,-5.014825,-7.442045,-4.928827,-4.231501,-16.973352,-17.052841,-16.825914,-16.920805,6
46910296,-11.688137,-13.279629,-1.591492,12.483883,-5.048323,-7.435560,-4.907703,-4.185486,-16.932201,-17.012024,-16.784000,-16.879749,6
46912295,-11.680412,-13.278532,-1.598120,12.479472,-5.041146,-7.438326,-4.907799,-4.182148,-16.927814,-17.007780,-16.779280,-16.874743,6
46914292,-11.623001,-13.259602,-1.636600,12.441301,-4.993200,-7.448101,-4.926872,-4.224873,-16.961193,-17.041254,-16.812611,-16.908121,6
46916291,-11.553478,-13.235712,-1.682234,12.394595,-4.935622,-7.458973,-4.959393,-4.290152,-17.014360,-17.094088,-16.866541,-16.961098,6
46918291,-11.496639,-13.212299,-1.715660,12.354469,-4.890490,-7.463980,-4.961967,-4.320526,-17.048550,-17.128277,-16.899824,-16.992283,6
46920289,-11.431742,-13.171959,-1.740217,12.301850,-4.845762,-7.456088,-4.899740,-4.282093,-17.054987,-17.135000,-16.901922,-16.980886,6
46922287,-11.416292,-13.161898,-1.745605,12.289095,-4.835343,-7.453752,-4.964685,-4.343224,-17.083073,-17.162514,-16.932869,-17.004061,6
46924285,-11.452532,-13.176012,-1.723480,12.314272,-4.864526,-7.449746,-4.980135,-4.342604,-17.073965,-17.153311,-16.925430,-17.001343,6
46926283,-11.518335,-13.201475,-1.683140,12.359905,-4.917598,-7.442307,-4.955149,-4.291105,-17.029858,-17.109346,-16.881895,-16.962147,6
46928281,-11.599874,-13.233185,-1.633310,12.416530,-4.983282,-7.433248,-4.924250,-4.225922,-16.972065,-17.051792,-16.824579,-16.909075,6
46930281,-11.648750,-13.250780,-1.602030,12.449765,-5.023360,-7.426405,-4.904175,-4.183245,-16.930628,-17.010927,-16.783142,-16.870260,6
46936275,-11.503696,-13.186216,-1.682520,12.344956,-4.910588,-7.434368,-4.933929,-4.263830,-16.999531,-17.079687,-16.849470,-16.885281,6
46938275,-11.456537,-13.171911,-1.715374,12.314224,-4.870582,-7.443643,-4.959202,-4.311609,-17.041349,-17.121983,-16.889858,-16.892672,6
46940271,-11.432648,-13.166142,-1.733494,12.299395,-4.849577,-7.449818,-4.984093,-4.350853,-17.074251,-17.154455,-16.921711,-16.897249,6
46942269,-11.440468,-13.173008,-1.732540,12.306738,-4.853964,-7.452774,-4.998493,-4.366779,-17.086792,-17.166185,-16.934729,-16.910172,6
46944268,-11.473227,-13.185358,-1.712132,12.329292,-4.880548,-7.448745,-4.980993,-4.339266,-17.068624,-17.148304,-16.917086,-16.911316,6
46946266,-11.532068,-13.197947,-1.665878,12.365007,-4.933095,-7.431912,-4.948330,-4.279566,-17.021561,-17.101574,-16.870260,-16.856623,6
46948264,-11.613321,-13.229513,-1.616192,12.421417,-4.998565,-7.422853,-4.923868,-4.218578,-16.966057,-17.045593,-16.815710,-16.819477,6
46950262,-11.661148,-13.247395,-1.586246,12.454271,-5.037451,-7.416821,-4.901838,-4.173470,-16.925430,-17.004871,-16.775274,-16.816664,6
46952260,-11.662102,-13.248253,-1.586151,12.455177,-5.037975,-7.417202,-4.901218,-4.171085,-16.920042,-16.999054,-16.770649,-16.830873,6
46954257,-11.609936,-13.232565,-1.622629,12.421250,-4.993653,-7.427597,-4.924393,-4.216194,-16.955137,-17.034340,-16.805935,-16.869259,6
46956256,-11.541605,-13.215399,-1.673794,12.378502,-4.933906,-7.444596,-4.958153,-4.281950,-17.007685,-17.087555,-16.859007,-16.923094,6
46958254,-11.491871,-13.201189,-1.709318,12.346530,-4.891276,-7.455254,-4.981327,-4.329824,-17.048979,-17.128658,-16.900158,-16.963196,6
46960252,-11.468077,-13.194132,-1.726055,12.331104,-4.871011,-7.460093,-4.998970,-4.365253,-17.080832,-17.160273,-16.930819,-16.994810,6
46962250,-11.469841,-13.196564,-1.726723,12.333202,-4.871559,-7.461643,-5.005074,-4.372454,-17.090178,-17.169619,-16.940451,-17.008257,6
46964249,-11.503315,-13.206911,-1.703596,12.355113,-4.899859,-7.455254,-4.993868,-4.348850,-17.073154,-17.153025,-16.923809,-16.996908,6
46966246,-11.558723,-13.219023,-1.660299,12.388873,-4.949212,-7.439661,-4.960585,-4.287291,-17.025805,-17.105675,-16.877222,-16.950750,6
46968244,-11.629295,-13.243246,-1.613951,12.436271,-5.007672,-7.428598,-4.931259,-4.218626,-16.968966,-17.048836,-16.820955,-16.898441,6
46970242,-11.669493,-13.254595,-1.585102,12.462044,-5.042195,-7.419848,-4.905605,-4.167366,-16.925621,-17.005110,-16.777134,-16.858721,6
46972240,-11.663485,-13.251972,-1.588488,12.457728,-5.037498,-7.420230,-4.903126,-4.161310,-16.918993,-16.998148,-16.770267,-16.850567,6
46974238,-11.614180,-13.241720,-1.627541,12.427950,-4.993320,-7.434630,-4.933548,-4.211998,-16.955519,-17.035103,-16.806555,-16.887569,6
46976237,-11.548615,-13.227177,-1.678562,12.387896,-4.935026,-7.452869,-4.967880,-4.279423,-17.009592,-17.088747,-16.860199,-16.940784,6
46978235,-11.499691,-13.213634,-1.713943,12.356663,-4.892874,-7.463789,-4.988575,-4.328012,-17.050838,-17.130327,-16.901159,-16.979742,6
46980233,-11.466360,-13.199759,-1.733398,12.333059,-4.866481,-7.466578,-4.996777,-4.356480,-17.077017,-17.156124,-16.927576,-16.998768,6
46982231,-11.465073,-13.197088,-1.732016,12.331080,-4.866529,-7.464552,-5.004215,-4.367256,-17.085600,-17.165136,-16.935921,-16.997957,6
46984229,-11.503696,-13.214445,-1.710749,12.359071,-4.896474,-7.462597,-5.001974,-4.351759,-17.072153,-17.152977,-16.922998,-16.989803,6
46986227,-11.566305,-13.235188,-1.668882,12.400746,-4.948711,-7.452035,-4.973173,-4.297686,-17.028332,-17.108870,-16.880512,-16.954470,6
46988225,-11.641788,-13.261318,-1.619530,12.451553,-5.011129,-7.440424,-4.940557,-4.231405,-16.970921,-17.051029,-16.822910,-16.903114,6
46990223,-11.685085,-13.276434,-1.591349,12.480760,-5.046868,-7.433891,-4.917192,-4.183722,-16.929007,-17.008781,-16.780853,-16.864872,6
46992222,-11.678457,-13.275194,-1.596737,12.476826,-5.040860,-7.435966,-4.915524,-4.179192,-16.923046,-17.003012,-16.774797,-16.861105,6
46994219,-11.623335,-13.259792,-1.636457,12.441564,-4.993439,-7.448125,-4.940081,-4.223299,-16.956854,-17.036581,-16.808844,-16.895962,6
46996217,-11.551142,-13.237810,-1.686668,12.394476,-4.932237,-7.462239,-4.971457,-4.285526,-17.009687,-17.089319,-16.861534,-16.947126,6
46998216,-11.501169,-13.222027,-1.720858,12.361598,-4.890156,-7.471442,-4.993248,-4.336452,-17.051315,-17.131805,-16.903210,-16.988945,6
47000216,-11.470842,-13.213491,-1.742649,12.342167,-4.864097,-7.478070,-5.005407,-4.367638,-17.081785,-17.161369,-16.932201,-17.018366,6
47002217,-11.468792,-13.211775,-1.742983,12.340283,-4.862905,-7.477379,-5.011320,-4.377317,-17.091608,-17.170429,-16.942167,-17.028475,6
47004216,-11.498404,-13.218117,-1.719713,12.358260,-4.889345,-7.468915,-4.993486,-4.349041,-17.072535,-17.151451,-16.923952,-17.008686,6
47006216,-11.563873,-13.238859,-1.674986,12.401366,-4.944444,-7.456923,-4.968929,-4.298878,-17.029619,-17.109489,-16.881800,-16.967821,6
47008206,-11.640120,-13.262987,-1.622868,12.451553,-5.008626,-7.442927,-4.936266,-4.231930,-16.972494,-17.052460,-16.823483,-16.913843,6
47010204,-11.682367,-13.274145,-1.591778,12.478256,-5.045295,-7.432961,-4.912186,-4.184580,-16.929531,-17.009163,-16.781139,-16.872835,6
47012202,-11.679268,-13.274240,-1.594973,12.476754,-5.042148,-7.434607,-4.907846,-4.179764,-16.923094,-17.002487,-16.775084,-16.866875,6
47014200,-11.629295,-13.259411,-1.630116,12.444353,-4.999590,-7.444763,-4.930210,-4.224634,-16.956520,-17.036676,-16.808891,-16.900444,6
47016199,-11.561680,-13.239002,-1.677322,12.400341,-4.942179,-7.458162,-4.961538,-4.289341,-17.009163,-17.088842,-16.860676,-16.951990,6
47018196,-11.508942,-13.218355,-1.709414,12.363648,-4.899764,-7.463884,-4.980659,-4.335356,-17.049170,-17.129135,-16.901207,-16.991568,6
47020197,-11.472988,-13.203859,-1.730871,12.338424,-4.871058,-7.467365,-4.983568,-4.356575,-17.075443,-17.154884,-16.926384,-17.015314,6
47022195,-11.436081,-13.172340,-1.736259,12.304211,-4.849911,-7.454300,-4.909420,-4.292536,-17.059755,-17.139482,-16.906166,-16.969776,6
47024196,-11.452961,-13.171482,-1.718521,12.312222,-4.867220,-7.445002,-4.955626,-4.320574,-17.062855,-17.142820,-16.911840,-16.940212,6
47026191,-11.514616,-13.186932,-1.672316,12.350774,-4.921150,-7.429624,-4.948330,-4.283476,-17.025328,-17.104769,-16.875839,-16.915131,6
47028189,-11.593771,-13.213968,-1.620197,12.403870,-4.986787,-7.417083,-4.915667,-4.214239,-16.967010,-17.046070,-16.818094,-16.866064,6
47030187,-11.649418,-13.238287,-1.588869,12.443852,-5.030274,-7.413578,-4.898548,-4.171562,-16.926956,-17.006302,-16.777754,-16.841173,6
47032185,-11.652040,-13.240957,-1.588917,12.446499,-5.031562,-7.414937,-4.896259,-4.167843,-16.920853,-17.000294,-16.771889,-16.843271,6
47034183,-11.600208,-13.225174,-1.624966,12.412691,-4.987621,-7.425070,-4.919291,-4.212093,-16.954422,-17.034340,-16.805935,-16.878843,6
47036185,-11.534548,-13.206100,-1.671553,12.370324,-4.931498,-7.438827,-4.952765,-4.277802,-17.007589,-17.087507,-16.859007,-16.932154,6
47038180,-11.486912,-13.190699,-1.703787,12.338805,-4.891562,-7.447243,-4.973602,-4.326010,-17.048931,-17.128992,-16.900206,-16.972685,6
47040179,-11.458063,-13.183451,-1.725388,12.320757,-4.866338,-7.454419,-4.985905,-4.356480,-17.078114,-17.157650,-16.928864,-16.998386,6
47042176,-11.458158,-13.182783,-1.724625,12.320471,-4.866767,-7.453704,-4.990673,-4.365826,-17.087078,-17.166710,-16.937590,-17.002869,6
47044174,-11.494923,-13.197184,-1.702261,12.346053,-4.896331,-7.449722,-4.982042,-4.348707,-17.073202,-17.152643,-16.924000,-16.993475,6
47046172,-11.555052,-13.216925,-1.661873,12.385988,-4.946589,-7.439399,-4.954672,-4.296064,-17.030668,-17.109966,-16.881657,-16.956711,6
47048170,-11.629677,-13.241339,-1.611662,12.435508,-5.009007,-7.426500,-4.922056,-4.225588,-16.972256,-17.051792,-16.823578,-16.905642,6
47050168,-11.676216,-13.256931,-1.580715,12.466574,-5.047750,-7.418823,-4.901075,-4.176998,-16.929197,-17.008543,-16.780710,-16.865873,6
47052166,-11.676836,-13.258982,-1.582146,12.467909,-5.047345,-7.420564,-4.899645,-4.174519,-16.922426,-17.002201,-16.774130,-16.860771,6
47054164,-11.626816,-13.243771,-1.616955,12.435293,-5.004930,-7.430363,-4.917049,-4.218435,-16.954517,-17.034674,-16.806650,-16.893721,6
47056162,-11.560535,-13.218594,-1.658058,12.389565,-4.951239,-7.438326,-4.945135,-4.277945,-17.006207,-17.085934,-16.858339,-16.944742,6
47058160,-11.506033,-13.198423,-1.692390,12.352228,-4.906821,-7.445407,-4.966593,-4.321623,-17.048025,-17.127705,-16.899872,-16.985035,6
47060159,-11.474895,-13.189411,-1.714516,12.332153,-4.880190,-7.451963,-4.982901,-4.355812,-17.078829,-17.158461,-16.930151,-17.015362,6
47062156,-11.465788,-13.181734,-1.715946,12.323761,-4.874921,-7.448840,-4.980659,-4.360390,-17.086697,-17.165756,-16.936874,-17.019987,6
47064154,-11.498642,-13.194370,-1.695728,12.346506,-4.901457,-7.445049,-4.974842,-4.343700,-17.072248,-17.152262,-16.923380,-17.008591,6
47066152,-11.558247,-13.214731,-1.656485,12.386489,-4.950881,-7.435608,-4.948950,-4.290581,-17.029572,-17.109203,-16.880798,-16.968679,6
47068150,-11.633635,-13.240433,-1.606798,12.437034,-5.013418,-7.423615,-4.913902,-4.220295,-16.971302,-17.050791,-16.822577,-16.913033,6
47070148,-11.681604,-13.259268,-1.577663,12.470436,-5.051970,-7.418466,-4.894304,-4.177046,-16.929293,-17.008591,-16.780806,-16.872549,6
47072146,-11.680412,-13.262939,-1.582527,12.471676,-5.048943,-7.422733,-4.895735,-4.174185,-16.922426,-17.001581,-16.773891,-16.866779,6
47074144,-11.626387,-13.247919,-1.621532,12.437153,-5.002427,-7.434726,-4.918003,-4.217339,-16.954994,-17.034340,-16.806698,-16.898823,6
47076143,-11.556149,-13.225794,-1.669645,12.390971,-4.943252,-7.447720,-4.949045,-4.278946,-17.006636,-17.086363,-16.858101,-16.949606,6
47078141,-11.490679,-13.196421,-1.705742,12.343550,-4.892468,-7.451081,-4.944801,-4.302311,-17.040062,-17.119551,-16.890049,-16.977358,6
47080139,-11.455107,-13.187456,-1.732349,12.321281,-4.861379,-7.459903,-4.981041,-4.352379,-17.076683,-17.156219,-16.928530,-17.012978,6
47082137,-11.460400,-13.193798,-1.733398,12.327099,-4.863501,-7.463598,-4.994583,-4.371643,-17.089891,-17.170143,-16.942596,-17.027807,6
47084136,-11.496544,-13.206100,-1.709557,12.351322,-4.893494,-7.457829,-4.979515,-4.347277,-17.074680,-17.153835,-16.925907,-17.013264,6
47086134,-11.556816,-13.217974,-1.661158,12.387395,-4.947829,-7.439566,-4.943562,-4.284906,-17.028236,-17.106819,-16.879606,-16.967344,6
47088132,-11.637974,-13.242722,-1.604748,12.440348,-5.016613,-7.423735,-4.913807,-4.217100,-16.970634,-17.050362,-16.823053,-16.911793,6
47090130,-11.689711,-13.260174,-1.570463,12.474942,-5.059624,-7.415318,-4.890394,-4.170418,-16.927719,-17.007446,-16.779852,-16.870213,6
47092128,-11.690903,-13.262796,-1.571894,12.476850,-5.059505,-7.417345,-4.888868,-4.166698,-16.920185,-16.999817,-16.772652,-16.863966,6
47094126,-11.639690,-13.249016,-1.609325,12.444353,-5.015182,-7.429171,-4.914474,-4.211950,-16.953516,-17.034197,-16.805506,-16.897202,6
47096124,-11.568880,-13.229322,-1.660442,12.399101,-4.954219,-7.444882,-4.947758,-4.276466,-17.006254,-17.086554,-16.858625,-16.949892,6
47098122,-11.514616,-13.211060,-1.696444,12.362838,-4.909086,-7.453752,-4.969454,-4.323053,-17.047739,-17.127943,-16.899681,-16.989851,6
47100122,-11.481953,-13.202238,-1.720285,12.342095,-4.880834,-7.461262,-4.989195,-4.359770,-17.079449,-17.159510,-16.931486,-17.021847,6
47102118,-11.476326,-13.198900,-1.722574,12.337613,-4.876876,-7.460737,-4.988050,-4.365158,-17.087650,-17.167425,-16.939497,-17.029190,6
47104116,-11.505127,-13.204622,-1.699495,12.354875,-4.902816,-7.452059,-4.976368,-4.343796,-17.072248,-17.152262,-16.924429,-17.013359,6
47106114,-11.572218,-13.225651,-1.653433,12.398934,-4.959393,-7.439542,-4.951811,-4.292631,-17.030764,-17.109966,-16.882372,-16.972876,6
47108112,-11.649656,-13.250494,-1.600838,12.450075,-5.024409,-7.425666,-4.914951,-4.220057,-16.972256,-17.051315,-16.823769,-16.915941,6
47110110,-11.694241,-13.264132,-1.569891,12.479186,-5.062175,-7.417011,-4.891920,-4.169750,-16.928577,-17.007637,-16.779757,-16.873598,6
47112108,-11.694622,-13.267565,-1.572943,12.481093,-5.060840,-7.420254,-4.889870,-4.163599,-16.920185,-16.999531,-16.771793,-16.866112,6
47114106,-11.644077,-13.254261,-1.610184,12.449169,-5.016947,-7.432222,-4.912186,-4.207897,-16.952562,-17.032671,-16.804504,-16.898251,6
47116107,-11.573553,-13.233519,-1.659966,12.403536,-4.956794,-7.446742,-4.945707,-4.274082,-17.005682,-17.085981,-16.856861,-16.950464,6
47118103,-11.518335,-13.212395,-1.694059,12.365365,-4.912138,-7.453227,-4.966450,-4.322147,-17.047119,-17.127132,-16.899014,-16.991091,6
47120101,-11.489391,-13.204908,-1.715517,12.347150,-4.886937,-7.460213,-4.988194,-4.362392,-17.079878,-17.159033,-16.932154,-17.024040,6
47122099,-11.487770,-13.202763,-1.714993,12.345266,-4.886389,-7.458878,-4.990435,-4.368591,-17.089224,-17.168808,-16.940784,-17.033052,6
47124100,-11.497307,-13.190699,-1.693392,12.344003,-4.901958,-7.442045,-4.930639,-4.301262,-17.057276,-17.136860,-16.906309,-16.993332,6
47126098,-11.520672,-13.181019,-1.660347,12.350845,-4.930162,-7.420683,-4.868126,-4.214907,-17.004299,-17.083931,-16.851759,-16.920900,6
47128096,-11.592817,-13.203382,-1.610565,12.398100,-4.991126,-7.406974,-4.903936,-4.206991,-16.968203,-17.047596,-16.818523,-16.889477,6
47130094,-11.652803,-13.225317,-1.572514,12.439060,-5.040145,-7.398915,-4.889059,-4.164124,-16.926622,-17.006159,-16.777754,-16.856480,6
47132091,-11.659575,-13.230848,-1.571274,12.445211,-5.044150,-7.401061,-4.888010,-4.158211,-16.918230,-16.998720,-16.770315,-16.851854,6
47134089,-11.608744,-13.216591,-1.607847,12.412667,-5.000448,-7.412219,-4.911518,-4.200268,-16.951275,-17.031145,-16.803265,-16.884995,6
47136090,-11.539078,-13.199091,-1.660013,12.369084,-4.939532,-7.429552,-4.947090,-4.268789,-17.005062,-17.084503,-16.857004,-16.937923,6
47138086,-11.486721,-13.182735,-1.696014,12.334728,-4.895353,-7.439375,-4.970980,-4.318619,-17.046785,-17.126703,-16.898298,-16.978455,6
47140084,-11.460352,-13.180065,-1.719713,12.320209,-4.870319,-7.449889,-4.993010,-4.355335,-17.079592,-17.159271,-16.931057,-17.012310,6
47142082,-11.462593,-13.185501,-1.722908,12.324047,-4.869843,-7.454205,-5.000305,-4.367685,-17.090845,-17.170525,-16.942596,-17.025137,6
47144080,-11.492538,-13.199520,-1.706982,12.346029,-4.892778,-7.453251,-4.990625,-4.349613,-17.076826,-17.156124,-16.928291,-17.012644,6
47146078,-11.546326,-13.213205,-1.666880,12.379766,-4.939723,-7.440042,-4.958057,-4.291534,-17.031717,-17.112303,-16.882753,-16.967869,6
47148076,-11.618757,-13.237190,-1.618433,12.427974,-5.000162,-7.427812,-4.926634,-4.225445,-16.974306,-17.054987,-16.825628,-16.913033,6
47150074,-11.665249,-13.254356,-1.589108,12.459803,-5.038071,-7.421732,-4.906940,-4.180765,-16.931820,-17.011595,-16.783524,-16.872215,6
47152072,-11.668015,-13.258028,-1.590014,12.463021,-5.039001,-7.424021,-4.906082,-4.175997,-16.924238,-17.003918,-16.775751,-16.865444,6
47154070,-11.618328,-13.241339,-1.623011,12.429833,-4.997659,-7.432175,-4.924965,-4.215288,-16.955709,-17.035532,-16.806936,-16.897297,6
47156069,-11.549377,-13.220978,-1.671600,12.385178,-4.938889,-7.446289,-4.956532,-4.277992,-17.008352,-17.088127,-16.859722,-16.949511,6
47158066,-11.495829,-13.202190,-1.706362,12.349010,-4.894733,-7.454276,-4.977465,-4.324293,-17.049646,-17.129517,-16.901064,-16.990137,6
47160064,-11.463594,-13.191319,-1.727724,12.327456,-4.867935,-7.459521,-4.991865,-4.356575,-17.079639,-17.159128,-16.930866,-17.017555,6
47162062,-11.463833,-13.196421,-1.732588,12.330127,-4.865623,-7.464504,-5.000925,-4.373360,-17.091990,-17.171001,-16.943455,-17.029953,6
47164060,-11.497688,-13.213205,-1.715517,12.355447,-4.891086,-7.464361,-4.992723,-4.355621,-17.078352,-17.157841,-16.929817,-17.018843,6
47166058,-11.556435,-13.231707,-1.675272,12.394071,-4.940581,-7.453489,-4.967594,-4.304409,-17.036581,-17.117119,-16.888428,-16.979027,6
47168056,-11.631536,-13.255596,-1.624060,12.443566,-5.003738,-7.439828,-4.935217,-4.234457,-16.978455,-17.058563,-16.830254,-16.922235,6
47170054,-11.682558,-13.272047,-1.589489,12.477303,-5.046535,-7.430768,-4.911232,-4.183483,-16.933441,-17.013597,-16.786003,-16.878366,6
47172052,-11.684942,-13.272953,-1.588011,12.478948,-5.048466,-7.430482,-4.909229,-4.174185,-16.924667,-17.004681,-16.777182,-16.869831,6
47174050,-11.631060,-13.255548,-1.624489,12.443304,-5.003285,-7.440019,-4.930878,-4.214716,-16.956425,-17.036152,-16.808081,-16.901588,6
47176049,-11.558342,-13.231611,-1.673269,12.394977,-4.942536,-7.452440,-4.963017,-4.280043,-17.008877,-17.088747,-16.860867,-16.953182,6
47178047,-11.506748,-13.214970,-1.708221,12.360859,-4.899263,-7.461596,-4.987669,-4.329967,-17.051268,-17.131281,-16.902971,-16.994715,6
47180045,-11.481619,-13.208485,-1.726866,12.345052,-4.877377,-7.467675,-5.001020,-4.362202,-17.081833,-17.161989,-16.933870,-17.024851,6
47182043,-11.474705,-13.202858,-1.728153,12.338781,-4.873276,-7.465506,-5.003166,-4.370785,-17.092085,-17.171431,-16.943407,-17.033768,6
47184041,-11.504698,-13.212967,-1.708269,12.358832,-4.898214,-7.460618,-4.995394,-4.353857,-17.079306,-17.158556,-16.930246,-17.021751,6
47186039,-11.564541,-13.232088,-1.667547,12.398314,-4.948497,-7.449818,-4.969931,-4.303408,-17.037010,-17.116690,-16.888857,-16.980696,6
47188037,-11.637545,-13.256264,-1.618719,12.446904,-5.009413,-7.437491,-4.935312,-4.233408,-16.978836,-17.058420,-16.830444,-16.924095,6
47190035,-11.686182,-13.271761,-1.585579,12.478971,-5.050302,-7.428670,-4.910660,-4.183149,-16.934252,-17.014170,-16.785669,-16.879988,6
47192033,-11.685705,-13.273001,-1.587296,12.479353,-5.049205,-7.430148,-4.908752,-4.176283,-16.924906,-17.005062,-16.776896,-16.871643,6
47194031,-11.634064,-13.256121,-1.622057,12.445092,-5.006003,-7.439089,-4.928875,-4.216719,-16.956139,-17.035723,-16.808462,-16.902781,6
47196029,-11.563826,-13.236856,-1.673031,12.400341,-4.945397,-7.454944,-4.962301,-4.282427,-17.008829,-17.088604,-16.861153,-16.954803,6
47198027,-11.514664,-13.221884,-1.707220,12.368274,-4.903722,-7.464552,-4.986048,-4.332733,-17.052031,-17.131519,-16.903687,-16.997528,6
47200025,-11.485863,-13.212776,-1.726913,12.349319,-4.879475,-7.469845,-5.000782,-4.367208,-17.083311,-17.162657,-16.934776,-17.028141,6
47202023,-11.485147,-13.210869,-1.725721,12.348008,-4.879713,-7.468295,-5.007505,-4.379845,-17.094660,-17.174101,-16.946554,-17.040110,6
47204021,-11.517477,-13.221359,-1.703882,12.369418,-4.906797,-7.462621,-4.994774,-4.358006,-17.080212,-17.159510,-16.931963,-17.025805,6
47206019,-11.575603,-13.238716,-1.663113,12.407160,-4.956245,-7.450914,-4.969645,-4.306602,-17.038774,-17.117929,-16.890335,-16.984653,6
47208017,-11.647797,-13.262033,-1.614237,12.454915,-5.016780,-7.438135,-4.938173,-4.240084,-16.980696,-17.059994,-16.832542,-16.927624,6
47210016,-11.690807,-13.274860,-1.584053,12.482834,-5.053377,-7.429457,-4.912663,-4.188824,-16.935635,-17.014265,-16.787338,-16.882944,6
47212014,-11.680984,-13.266277,-1.585293,12.473631,-5.047846,-7.425785,-4.902315,-4.173374,-16.922569,-17.001295,-16.774654,-16.868687,6
47214012,-11.627102,-13.248825,-1.621723,12.437963,-5.002689,-7.435274,-4.927254,-4.215336,-16.954041,-17.033148,-16.805840,-16.900682,6
47216011,-11.559010,-13.229942,-1.670933,12.394476,-4.944038,-7.450438,-4.961681,-4.278755,-17.007208,-17.087317,-16.859150,-16.954088,6
47218009,-11.504793,-13.211536,-1.706743,12.358165,-4.899025,-7.459140,-4.983616,-4.327250,-17.049026,-17.129374,-16.901588,-16.995525,6
47220007,-11.475134,-13.203144,-1.728010,12.339139,-4.873562,-7.465577,-5.004263,-4.365301,-17.081976,-17.162132,-16.934633,-17.028236,6
47222005,-11.471272,-13.201523,-1.730251,12.336397,-4.870510,-7.465887,-5.002928,-4.371738,-17.091465,-17.170811,-16.943741,-17.036247,6
47224003,-11.501503,-13.210583,-1.709080,12.356043,-4.896212,-7.459831,-4.991770,-4.349709,-17.076588,-17.155981,-16.929531,-17.021942,6
47226004,-11.549425,-13.220358,-1.670933,12.384892,-4.939246,-7.445645,-4.927731,-4.262733,-17.022800,-17.102289,-16.872978,-16.963196,6
47228002,-11.587000,-13.218260,-1.631260,12.402630,-4.977870,-7.424760,-4.851770,-4.154015,-16.951418,-17.031479,-16.799641,-16.880417,6
47230000,-11.625767,-13.230419,-1.604652,12.428093,-5.010557,-7.417536,-4.896593,-4.165792,-16.928864,-17.009068,-16.780758,-16.861963,6
47231998,-11.632776,-13.238430,-1.605654,12.435603,-5.013561,-7.422042,-4.901838,-4.164076,-16.922235,-17.002535,-16.774416,-16.858768,6
47233996,-11.587572,-13.226461,-1.638889,12.407017,-4.974341,-7.432675,-4.926062,-4.207325,-16.953993,-17.033958,-16.806173,-16.890812,6
47235997,-11.524630,-13.209105,-1.684475,12.366867,-4.920077,-7.446790,-4.959297,-4.273462,-17.007542,-17.086792,-16.858912,-16.943836,6
47237993,-11.479998,-13.196039,-1.716042,12.338018,-4.881978,-7.456040,-4.985666,-4.324245,-17.050743,-17.130232,-16.902447,-16.986609,6
47239991,-11.449766,-13.187933,-1.738167,12.318850,-4.855800,-7.463050,-4.998970,-4.357195,-17.082167,-17.161465,-16.933918,-17.017174,6
47241989,-11.446714,-13.187504,-1.740789,12.317109,-4.852962,-7.464147,-5.004930,-4.372168,-17.094612,-17.174053,-16.946411,-17.030716,6
47243987,-11.477757,-13.199377,-1.721621,12.338567,-4.878068,-7.460499,-4.998541,-4.357386,-17.081594,-17.161465,-16.933775,-17.020130,6
47245985,-11.538553,-13.217402,-1.678848,12.377977,-4.929852,-7.448125,-4.973698,-4.305792,-17.039585,-17.119598,-16.892004,-16.980267,6
47247983,-11.610079,-13.238001,-1.627922,12.424040,-4.991078,-7.432961,-4.933786,-4.229021,-16.978073,-17.058659,-16.830635,-16.918945,6
47249981,-11.656713,-13.254929,-1.598215,12.455821,-5.029249,-7.426572,-4.914761,-4.180717,-16.934109,-17.014122,-16.786671,-16.876078,6
47251979,-11.662340,-13.261509,-1.599169,12.461925,-5.031586,-7.430339,-4.913378,-4.175854,-16.925764,-17.005587,-16.777802,-16.868305,6
47253977,-11.616182,-13.249254,-1.633072,12.432718,-4.991555,-7.441163,-4.936314,-4.218149,-16.957092,-17.036533,-16.808844,-16.899252,6
47255976,-11.548328,-13.230848,-1.682520,12.389588,-4.932904,-7.456684,-4.968214,-4.282236,-17.009163,-17.089081,-16.861010,-16.951275,6
47257974,-11.496496,-13.211823,-1.715326,12.354159,-4.890585,-7.463574,-4.987431,-4.327106,-17.050982,-17.131042,-16.902733,-16.991520,6
47259972,-11.462593,-13.198185,-1.735592,12.330389,-4.863501,-7.466888,-4.999495,-4.357100,-17.080641,-17.160082,-16.932535,-17.020178,6
47261970,-11.458969,-13.196516,-1.737547,12.327743,-4.860711,-7.467031,-5.006075,-4.370403,-17.093277,-17.172384,-16.944695,-17.031956,6
47263968,-11.489487,-13.205814,-1.716328,12.347651,-4.886580,-7.461071,-4.997444,-4.351950,-17.080402,-17.160082,-16.932058,-17.020607,6
47265966,-11.550474,-13.221073,-1.670599,12.385774,-4.939938,-7.445836,-4.972506,-4.298258,-17.039251,-17.118740,-16.891098,-16.980839,6
47267964,-11.625338,-13.245344,-1.620007,12.435341,-5.002666,-7.432675,-4.938507,-4.227352,-16.980648,-17.060089,-16.832876,-16.924429,6
47269962,-11.674690,-13.260317,-1.585627,12.467504,-5.044532,-7.422972,-4.912949,-4.174423,-16.935158,-17.014551,-16.787100,-16.879225,6
47271960,-11.676836,-13.260078,-1.583242,12.468457,-5.046797,-7.421660,-4.908562,-4.164076,-16.924524,-17.004728,-16.776609,-16.869497,6
47273958,-11.627102,-13.243341,-1.616240,12.435222,-5.005431,-7.429790,-4.928589,-4.203224,-16.954660,-17.033863,-16.806269,-16.899681,6
47275957,-11.557627,-13.223219,-1.665592,12.390423,-4.946017,-7.444406,-4.960394,-4.267740,-17.006922,-17.086554,-16.859055,-16.952229,6
47277955,-11.504126,-13.207388,-1.703262,12.355757,-4.900432,-7.455325,-4.983616,-4.320240,-17.050028,-17.130089,-16.901827,-16.993952,6
47279956,-11.475754,-13.202477,-1.726723,12.339115,-4.874516,-7.464600,-5.006647,-4.360819,-17.083406,-17.164040,-16.935635,-17.028379,6
47281951,-11.470938,-13.198805,-1.727867,12.334871,-4.871535,-7.463336,-5.008698,-4.368114,-17.093515,-17.173529,-16.945267,-17.036963,6
47283949,-11.501122,-13.204432,-1.703310,12.352777,-4.898906,-7.453871,-4.997778,-4.347181,-17.079782,-17.158794,-16.931391,-17.022800,6
47285947,-11.564255,-13.223505,-1.659250,12.393880,-4.952502,-7.441378,-4.975653,-4.298162,-17.039967,-17.119360,-16.891813,-16.984034,6
47287945,-11.637306,-13.246441,-1.609135,12.441874,-5.014086,-7.427788,-4.939413,-4.226732,-16.981173,-17.061520,-16.833305,-16.926670,6
47289943,-11.687851,-13.262320,-1.574469,12.475085,-5.056691,-7.418394,-4.914474,-4.174423,-16.935778,-17.016125,-16.787863,-16.882038,6
47291941,-11.693811,-13.267708,-1.573896,12.480760,-5.059958,-7.420802,-4.912758,-4.166555,-16.925192,-17.005253,-16.777563,-16.872215,6
47293939,-11.648798,-13.253164,-1.604366,12.450981,-5.022216,-7.428765,-4.936409,-4.206467,-16.955709,-17.034578,-16.808319,-16.902018,6
47295938,-11.579847,-13.233042,-1.653194,12.406445,-4.963326,-7.443118,-4.967070,-4.270077,-17.008114,-17.087412,-16.860390,-16.953897,6
47297936,-11.521530,-13.216352,-1.694822,12.368941,-4.913354,-7.455587,-4.989815,-4.320431,-17.051172,-17.130470,-16.903019,-16.996193,6
47299934,-11.488485,-13.206673,-1.718187,12.347579,-4.885149,-7.462430,-5.010605,-4.358721,-17.084408,-17.163372,-16.936016,-17.029715,6
47301932,-11.478043,-13.198566,-1.720524,12.338305,-4.878759,-7.459545,-5.006838,-4.364967,-17.092419,-17.172146,-16.945171,-17.038584,6
47303930,-11.507845,-13.208914,-1.701069,12.358379,-4.903388,-7.454991,-4.999208,-4.349232,-17.081165,-17.161036,-16.933250,-17.026567,6
47305928,-11.567211,-13.229942,-1.662731,12.398577,-4.952240,-7.446337,-4.974508,-4.301167,-17.041492,-17.121029,-16.893196,-16.987371,6
47307926,-11.638975,-13.251591,-1.612616,12.445283,-5.013180,-7.432103,-4.938173,-4.230165,-16.982031,-17.061996,-16.834784,-16.928625,6
47309924,-11.681604,-13.260889,-1.579285,12.471247,-5.051160,-7.420087,-4.911518,-4.175043,-16.936111,-17.015743,-16.787577,-16.882610,6
47311922,-11.678886,-13.261366,-1.582479,12.470126,-5.048203,-7.421923,-4.907942,-4.164982,-16.925478,-17.005014,-16.776752,-16.872597,6
47313920,-11.630678,-13.249350,-1.618671,12.440014,-5.006003,-7.434011,-4.929829,-4.206038,-16.955185,-17.034101,-16.806793,-16.902351,6
47315920,-11.563730,-13.230562,-1.666832,12.397146,-4.948449,-7.448697,-4.960728,-4.270649,-17.007637,-17.087173,-16.859198,-16.954136,6
47317917,-11.508322,-13.213110,-1.704788,12.360716,-4.901767,-7.458949,-4.983807,-4.322529,-17.050076,-17.130804,-16.902256,-16.996574,6
47319915,-11.476946,-13.204813,-1.727867,12.340879,-4.874539,-7.466340,-5.003309,-4.362488,-17.083454,-17.163801,-16.936159,-17.029762,6
47321913,-11.468077,-13.197947,-1.729870,12.333012,-4.869103,-7.463908,-5.001879,-4.369116,-17.091942,-17.172575,-16.945505,-17.038536,6
47323911,-11.494732,-13.206434,-1.711702,12.350583,-4.891515,-7.459068,-4.994917,-4.351521,-17.080593,-17.160988,-16.933441,-17.027092,6
47325909,-11.551189,-13.222837,-1.671648,12.387013,-4.939771,-7.447243,-4.967976,-4.301071,-17.040443,-17.120457,-16.892719,-16.986942,6
47327909,-11.612082,-13.231850,-1.619768,12.421966,-4.996157,-7.425809,-4.887819,-4.191732,-16.968298,-17.047930,-16.817760,-16.909552,6
47329907,-11.622858,-13.216019,-1.593161,12.419438,-5.014849,-7.404590,-4.814577,-4.095840,-16.908598,-16.988850,-16.756582,-16.840363,6
47331905,-11.620998,-13.214874,-1.593876,12.417936,-5.013561,-7.404375,-4.881287,-4.146910,-16.919088,-16.999102,-16.771221,-16.855431,6
47333903,-11.581278,-13.209200,-1.627922,12.395239,-4.976678,-7.418561,-4.913330,-4.193354,-16.951561,-17.031431,-16.803312,-16.889381,6
47335904,-11.516953,-13.195086,-1.678133,12.356019,-4.919410,-7.436609,-4.948568,-4.258490,-17.004585,-17.084742,-16.856337,-16.942024,6
47337900,-11.466646,-13.178682,-1.712036,12.322664,-4.877305,-7.445359,-4.972410,-4.309273,-17.048168,-17.128038,-16.899443,-16.984272,6
47339897,-11.438656,-13.173389,-1.734734,12.306023,-4.851961,-7.454062,-4.992580,-4.349613,-17.081499,-17.161083,-16.933298,-17.017698,6
47341895,-11.437654,-13.176155,-1.738501,12.306905,-4.849577,-7.457328,-5.002689,-4.366398,-17.094898,-17.174292,-16.946745,-17.032099,6
47343893,-11.463451,-13.183355,-1.719904,12.323403,-4.871774,-7.451630,-4.988766,-4.344702,-17.081308,-17.160845,-16.933155,-17.019320,6
47345891,-11.515331,-13.194609,-1.679277,12.354970,-4.918027,-7.436943,-4.954529,-4.287863,-17.038012,-17.117929,-16.890287,-16.976023,6
47347889,-11.596107,-13.223028,-1.626921,12.409568,-4.984593,-7.424974,-4.926968,-4.224682,-16.982031,-17.061996,-16.833687,-16.921663,6
47349887,-11.651850,-13.242817,-1.590967,12.447333,-5.030441,-7.416892,-4.900265,-4.170942,-16.935396,-17.015791,-16.787720,-16.877508,6
47351885,-11.661959,-13.247681,-1.585722,12.454820,-5.038118,-7.416701,-4.897547,-4.160547,-16.924000,-17.004871,-16.776609,-16.867399,6
47353883,-11.618185,-13.234663,-1.616478,12.426424,-5.000854,-7.425570,-4.920578,-4.202175,-16.953087,-17.033863,-16.806078,-16.895819,6
47355882,-11.549807,-13.216925,-1.667118,12.383366,-4.941344,-7.442021,-4.953480,-4.267788,-17.005730,-17.085981,-16.858721,-16.948271,6
47357879,-11.496401,-13.197994,-1.701593,12.347198,-4.897404,-7.449794,-4.974794,-4.316521,-17.048025,-17.128277,-16.900492,-16.990232,6
47359877,-11.466408,-13.186836,-1.720428,12.326622,-4.872990,-7.453632,-4.989624,-4.349995,-17.080116,-17.160368,-16.931820,-17.022085,6
47361875,-11.463594,-13.183212,-1.719618,12.323403,-4.871988,-7.451415,-4.992533,-4.359055,-17.090750,-17.170763,-16.942644,-17.031813,6
47363873,-11.497688,-13.196754,-1.699066,12.347221,-4.899311,-7.447910,-4.991484,-4.348135,-17.080545,-17.160511,-16.932201,-17.021942,6
47365871,-11.557198,-13.216496,-1.659298,12.386847,-4.948950,-7.437897,-4.966164,-4.301357,-17.041254,-17.120695,-16.892958,-16.983366,6
47367869,-11.633348,-13.241625,-1.608276,12.437487,-5.012536,-7.424951,-4.931402,-4.232693,-16.983747,-17.063427,-16.835737,-16.927004,6
47369867,-11.683750,-13.258886,-1.575136,12.471318,-5.054307,-7.417011,-4.906368,-4.180527,-16.936636,-17.016935,-16.788673,-16.881371,6
47371865,-11.685896,-13.259745,-1.573849,12.472820,-5.056024,-7.416797,-4.904366,-4.171181,-16.923523,-17.004871,-16.777182,-16.870642,6
47373863,-11.638165,-13.243628,-1.605463,12.440896,-5.016351,-7.424545,-4.925680,-4.207134,-16.953278,-17.033195,-16.804886,-16.898727,6
47375862,-11.572599,-13.225412,-1.652813,12.399006,-4.959893,-7.439113,-4.957724,-4.269314,-17.006683,-17.085648,-16.857624,-16.950417,6
47377860,-11.519384,-13.208103,-1.688719,12.363744,-4.915333,-7.448411,-4.981947,-4.318333,-17.048693,-17.129040,-16.900492,-16.992855,6
47379858,-11.482954,-13.192129,-1.709175,12.337542,-4.886889,-7.450652,-4.995346,-4.351091,-17.078733,-17.159557,-16.930532,-17.022181,6
47381856,-11.479330,-13.191652,-1.712322,12.335491,-4.883504,-7.451987,-5.001020,-4.365158,-17.092085,-17.171240,-16.944170,-17.035961,6
47383854,-11.510801,-13.206100,-1.695299,12.358451,-4.907751,-7.450700,-4.993057,-4.349089,-17.080736,-17.160225,-16.933107,-17.024994,6
47385852,-11.568689,-13.223934,-1.655245,12.396312,-4.956722,-7.439590,-4.968214,-4.299974,-17.041111,-17.120790,-16.893244,-16.985273,6
47387850,-11.647177,-13.247681,-1.600504,12.447429,-5.023336,-7.424092,-4.930305,-4.228401,-16.982746,-17.061806,-16.833973,-16.927576,6
47389848,-11.698580,-13.265705,-1.567125,12.482142,-5.065727,-7.416415,-4.903221,-4.175043,-16.935253,-17.014837,-16.786814,-16.881418,6
47391846,-11.700678,-13.268661,-1.567984,12.484670,-5.066347,-7.418323,-4.898405,-4.164410,-16.922522,-17.002773,-16.774654,-16.869926,6
47393844,-11.651278,-13.256502,-1.605225,12.453890,-5.023026,-7.430863,-4.921150,-4.204226,-16.951752,-17.031765,-16.803360,-16.898537,6
47395843,-11.582279,-13.240051,-1.657772,12.411165,-4.962254,-7.448912,-4.957390,-4.271936,-17.004824,-17.084932,-16.856527,-16.951513,6
47397840,-11.526346,-13.222599,-1.696253,12.374473,-4.915047,-7.459426,-4.980659,-4.322052,-17.048073,-17.128086,-16.899920,-16.993952,6
47399838,-11.495161,-13.214684,-1.719522,12.354922,-4.887819,-7.467103,-5.001974,-4.362631,-17.082167,-17.161512,-16.933870,-17.027426,6
47401836,-11.487436,-13.211346,-1.723909,12.349391,-4.881763,-7.467628,-5.006409,-4.375458,-17.094326,-17.173862,-16.945934,-17.039919,6
47403834,-11.508274,-13.213015,-1.704741,12.360644,-4.901767,-7.458878,-4.989243,-4.350328,-17.079544,-17.159319,-16.930962,-17.023802,6
47405832,-11.562395,-13.227367,-1.664972,12.394881,-4.948711,-7.446170,-4.963589,-4.301071,-17.039156,-17.119503,-16.890955,-16.983700,6
47407830,-11.639786,-13.253784,-1.613998,12.446785,-5.012894,-7.433891,-4.931593,-4.233932,-16.981936,-17.061996,-16.835070,-16.928482,6
47409828,-11.690474,-13.269901,-1.579428,12.480187,-5.055523,-7.424664,-4.905033,-4.178619,-16.934586,-17.015171,-16.786861,-16.881752,6
47411826,-11.694527,-13.272572,-1.578045,12.483549,-5.058241,-7.425308,-4.901695,-4.165792,-16.922331,-17.002249,-16.774559,-16.870070,6
47413824,-11.648273,-13.261938,-1.613665,12.455106,-5.017304,-7.437801,-4.923773,-4.205227,-16.951036,-17.030430,-16.803074,-16.898441,6
47415823,-11.581612,-13.244486,-1.662874,12.413049,-4.959369,-7.453680,-4.959679,-4.273558,-17.004442,-17.083883,-16.856337,-16.951418,6
47417821,-11.525917,-13.225269,-1.699352,12.375593,-4.913282,-7.462311,-4.981232,-4.324245,-17.047024,-17.127132,-16.898584,-16.993666,6
47419818,-11.491251,-13.213158,-1.721907,12.352204,-4.884672,-7.467532,-4.997444,-4.359770,-17.079926,-17.160416,-16.932440,-17.026138,6
47421816,-11.486197,-13.209152,-1.722956,12.347674,-4.881620,-7.466054,-5.003023,-4.370880,-17.092752,-17.173386,-16.945648,-17.039728,6
47423815,-11.511087,-13.218641,-1.707554,12.364864,-4.901767,-7.463098,-4.994678,-4.354811,-17.080736,-17.161798,-16.934013,-17.029095,6
47425812,-11.558008,-13.230896,-1.672888,12.394452,-4.942560,-7.451892,-4.964972,-4.301739,-17.039394,-17.120600,-16.892147,-16.987228,6
47427810,-11.624050,-13.249493,-1.625443,12.436771,-4.999304,-7.437468,-4.934931,-4.237175,-16.982698,-17.063570,-16.835499,-16.929817,6
47429810,-11.671305,-13.262653,-1.591349,12.466979,-5.039978,-7.427001,-4.903030,-4.178953,-16.933632,-17.013359,-16.785479,-16.880131,6
47431809,-11.643600,-13.235283,-1.591682,12.439442,-5.025959,-7.413483,-4.818773,-4.094648,-16.894293,-16.974640,-16.742516,-16.830683,6
47433807,-11.573887,-13.203716,-1.629829,12.388802,-4.972029,-7.416773,-4.878330,-4.166603,-16.936016,-17.016459,-16.786098,-16.868305,6
47435808,-11.508894,-13.184643,-1.675749,12.346768,-4.916573,-7.430196,-4.948378,-4.261208,-17.001104,-17.080736,-16.852236,-16.935587,6
47437804,-11.459446,-13.169622,-1.710176,12.314534,-4.874635,-7.439899,-4.970264,-4.307890,-17.044163,-17.123795,-16.895485,-16.977978,6
47439801,-11.428070,-13.159847,-1.731777,12.293959,-4.848146,-7.445812,-4.982424,-4.339504,-17.075205,-17.154932,-16.926622,-17.006254,6
47441799,-11.431503,-13.160181,-1.728678,12.295842,-4.851413,-7.444429,-4.990625,-4.353380,-17.088985,-17.168617,-16.940308,-17.017889,6
47443797,-11.464834,-13.172626,-1.707792,12.318730,-4.878521,-7.440209,-4.984713,-4.339504,-17.077780,-17.158794,-16.930294,-17.009878,6
47445795,-11.526155,-13.193178,-1.667023,12.359667,-4.929566,-7.430100,-4.961491,-4.291010,-17.039013,-17.119837,-16.892052,-16.974592,6
47447793,-11.602497,-13.219547,-1.617050,12.411022,-4.992723,-7.418299,-4.927254,-4.221058,-16.981268,-17.061949,-16.834211,-16.920090,6
47449791,-11.656809,-13.236332,-1.579523,12.446570,-5.038643,-7.407928,-4.901838,-4.170513,-16.933823,-17.014503,-16.786623,-16.875553,6
47451790,-11.666107,-13.240147,-1.574039,12.453127,-5.046034,-7.407093,-4.895210,-4.159355,-16.920996,-17.001581,-16.773129,-16.863441,6
47453788,-11.623430,-13.227654,-1.604223,12.425542,-5.009604,-7.415938,-4.913807,-4.196596,-16.949511,-17.028904,-16.800213,-16.891384,6
47455786,-11.552954,-13.206673,-1.653719,12.379813,-4.949617,-7.430196,-4.948473,-4.260588,-17.001200,-17.080975,-16.852951,-16.943645,6
47457784,-11.497259,-13.190508,-1.693249,12.343884,-4.902005,-7.441878,-4.976082,-4.315329,-17.045450,-17.125320,-16.897488,-16.987514,6
47459782,-11.463594,-13.180685,-1.717091,12.322140,-4.873252,-7.448888,-4.991961,-4.352522,-17.077541,-17.157173,-16.930532,-17.019463,6
47461780,-11.461401,-13.181973,-1.720572,12.321687,-4.870415,-7.451272,-5.000925,-4.366350,-17.092180,-17.171669,-16.944218,-17.034006,6
47463779,-11.490536,-13.190651,-1.700115,12.340593,-4.895210,-7.445383,-4.989195,-4.346180,-17.080116,-17.160034,-16.931820,-17.022419,6
47465776,-11.543846,-13.201475,-1.657629,12.372661,-4.943109,-7.429552,-4.956293,-4.289579,-17.038012,-17.118216,-16.890478,-16.980886,6
47467774,-11.616898,-13.223076,-1.606178,12.419987,-5.005360,-7.414627,-4.925489,-4.220819,-16.980267,-17.059994,-16.832113,-16.923523,6
47469772,-11.670971,-13.241863,-1.570892,12.456417,-5.050039,-7.406378,-4.901695,-4.170752,-16.933870,-17.013359,-16.785622,-16.877604,6
47471771,-11.674929,-13.246250,-1.571321,12.460589,-5.051804,-7.408786,-4.899359,-4.161310,-16.920471,-17.001343,-16.773319,-16.865969,6
47473769,-11.627865,-13.233042,-1.605177,12.430453,-5.011344,-7.419109,-4.921055,-4.202652,-16.948032,-17.029047,-16.800690,-16.893864,6
47475767,-11.558819,-13.213778,-1.654959,12.386298,-4.951930,-7.434368,-4.953957,-4.269218,-17.000866,-17.080784,-16.852760,-16.946220,6
47477766,-11.504364,-13.195133,-1.690769,12.349749,-4.906797,-7.442951,-4.974842,-4.318333,-17.042828,-17.122936,-16.895533,-16.986704,6
47479763,-11.467934,-13.181543,-1.713610,12.324739,-4.877162,-7.447577,-4.990196,-4.352999,-17.074871,-17.155457,-16.927528,-17.016554,6
47481761,-11.467171,-13.184977,-1.717806,12.326074,-4.874682,-7.451391,-5.002880,-4.372406,-17.090988,-17.171097,-16.943264,-17.033052,6
47483759,-11.500692,-13.197803,-1.697111,12.349248,-4.901791,-7.447457,-4.995537,-4.358721,-17.080641,-17.159796,-16.932678,-17.023516,6
47485757,-11.560154,-13.216591,-1.656437,12.388372,-4.951859,-7.436514,-4.972124,-4.314947,-17.042828,-17.121887,-16.894627,-16.985750,6
47487755,-11.634970,-13.239336,-1.604366,12.437153,-5.015302,-7.421851,-4.934216,-4.244852,-16.984081,-17.063713,-16.836596,-16.929007,6
47489754,-11.686611,-13.254356,-1.567745,12.470484,-5.059433,-7.411051,-4.903269,-4.187298,-16.934919,-17.015171,-16.787577,-16.879988,6
47491752,-11.678982,-13.239813,-1.560831,12.459397,-5.059075,-7.400322,-4.875946,-4.150343,-16.912460,-16.992331,-16.763353,-16.854477,6
47493750,-11.623240,-13.217402,-1.594162,12.420321,-5.014539,-7.405782,-4.895973,-4.186106,-16.938210,-17.018080,-16.789103,-16.878319,6
47495748,-11.558199,-13.202667,-1.644468,12.380433,-4.956865,-7.423568,-4.939222,-4.259539,-16.992664,-17.073202,-16.845226,-16.933393,6
47497746,-11.507511,-13.189650,-1.682138,12.348580,-4.912686,-7.435894,-4.966736,-4.316139,-17.039013,-17.119122,-16.890860,-16.978693,6
47499745,-11.479330,-13.184261,-1.704931,12.331796,-4.887199,-7.444596,-4.990005,-4.356956,-17.074537,-17.154169,-16.926336,-17.013836,6
47501742,-11.468410,-13.178921,-1.710510,12.323666,-4.878950,-7.444715,-4.992914,-4.366112,-17.086029,-17.165470,-16.936922,-17.023706,6
47503741,-11.494160,-13.189411,-1.695251,12.341785,-4.899454,-7.442331,-4.991865,-4.354906,-17.076349,-17.156410,-16.928196,-17.014360,6
47505739,-11.551476,-13.212156,-1.660681,12.381816,-4.945397,-7.436419,-4.972744,-4.311037,-17.039061,-17.119789,-16.891336,-16.979456,6
47507737,-11.624765,-13.237572,-1.612806,12.431169,-5.005980,-7.425189,-4.940557,-4.242849,-16.981936,-17.062664,-16.834450,-16.924572,6
47509735,-11.676455,-13.255692,-1.579237,12.466073,-5.048609,-7.417464,-4.914427,-4.189301,-16.934633,-17.014360,-16.787004,-16.878605,6
47511732,-11.683083,-13.258505,-1.575422,12.470794,-5.053830,-7.416964,-4.907560,-4.176188,-16.920757,-17.000246,-16.772842,-16.864920,6
47513730,-11.639071,-13.244820,-1.605749,12.441945,-5.016661,-7.425284,-4.924488,-4.211712,-16.946602,-17.026806,-16.798973,-16.891289,6
47515729,-11.572409,-13.224888,-1.652479,12.398648,-4.959965,-7.438684,-4.957008,-4.275465,-16.999435,-17.079258,-16.851234,-16.943502,6
47517727,-11.516905,-13.205862,-1.688957,12.361383,-4.913974,-7.447410,-4.979897,-4.324770,-17.043066,-17.122126,-16.894293,-16.986322,6
47519724,-11.478233,-13.192272,-1.714039,12.335253,-4.882097,-7.453156,-4.995394,-4.358625,-17.074060,-17.153215,-16.926003,-17.016506,6
47521722,-11.474657,-13.192034,-1.717377,12.333345,-4.878640,-7.454705,-5.007076,-4.376602,-17.089367,-17.169142,-16.941595,-17.031050,6
47523720,-11.504459,-13.203335,-1.698875,12.353897,-4.902792,-7.451105,-4.997444,-4.356527,-17.078447,-17.158318,-16.930914,-17.021084,6
47525718,-11.559200,-13.219881,-1.660681,12.389541,-4.949260,-7.440281,-4.971790,-4.306936,-17.040348,-17.119741,-16.892624,-16.984129,6
47527716,-11.632919,-13.243532,-1.610613,12.438226,-5.011153,-7.427073,-4.936504,-4.236841,-16.982460,-17.062616,-16.834831,-16.927576,6
47529714,-11.684370,-13.260174,-1.575804,12.472272,-5.054283,-7.417989,-4.909229,-4.182053,-16.934872,-17.014885,-16.787004,-16.880131,6
47531713,-11.688805,-13.262892,-1.574087,12.475848,-5.057359,-7.418489,-4.900885,-4.163647,-16.919136,-16.998672,-16.771269,-16.864443,6
47533713,-11.614418,-13.223934,-1.609516,12.419176,-5.002451,-7.416725,-4.849195,-4.132080,-16.922188,-17.001867,-16.770315,-16.855288,6
47535713,-11.514521,-13.180447,-1.665926,12.347484,-4.924297,-7.423186,-4.896021,-4.207563,-16.981411,-17.061186,-16.829252,-16.900158,6
47537710,-11.463451,-13.163233,-1.699781,12.313342,-4.881835,-7.431507,-4.966927,-4.304218,-17.040300,-17.120075,-16.890478,-16.960335,6
47539707,-11.434078,-13.155270,-1.721191,12.294674,-4.856443,-7.438231,-4.981089,-4.343796,-17.073059,-17.152834,-16.923714,-16.989470,6
47541705,-11.426306,-13.151598,-1.725292,12.288952,-4.850507,-7.438445,-4.991293,-4.360533,-17.088032,-17.168188,-16.938972,-16.998529,6
47543703,-11.455154,-13.164330,-1.709175,12.309742,-4.872990,-7.436752,-4.988718,-4.348707,-17.080212,-17.160130,-16.931057,-16.996336,6
47545701,-11.514235,-13.185787,-1.671553,12.350011,-4.921341,-7.428670,-4.966927,-4.302931,-17.042828,-17.122555,-16.894436,-16.967630,6
47547699,-11.593676,-13.210344,-1.616669,12.402010,-4.988503,-7.413507,-4.931736,-4.231024,-16.984653,-17.064762,-16.836929,-16.916656,6
47549697,-11.655426,-13.230896,-1.575470,12.443161,-5.039978,-7.403183,-4.904699,-4.175901,-16.935778,-17.016363,-16.787958,-16.872549,6
47551695,-11.668634,-13.238239,-1.569605,12.453437,-5.049515,-7.403922,-4.899788,-4.163170,-16.921806,-17.001343,-16.773796,-16.860151,6
47553693,-11.627626,-13.226032,-1.598406,12.426829,-5.014610,-7.412219,-4.917383,-4.198360,-16.947460,-17.026711,-16.799736,-16.886139,6
47555691,-11.561537,-13.207960,-1.646423,12.384748,-4.957557,-7.427192,-4.949713,-4.261541,-16.999626,-17.079353,-16.852379,-16.937828,6
47557689,-11.506176,-13.190937,-1.684761,12.348557,-4.910707,-7.437849,-4.976416,-4.313040,-17.043543,-17.123175,-16.895628,-16.980267,6
47559688,-11.473465,-13.181543,-1.708078,12.327504,-4.882693,-7.444811,-4.994822,-4.350138,-17.076778,-17.156267,-16.928244,-17.012978,6
47561686,-11.463213,-13.180161,-1.716948,12.321687,-4.873133,-7.448554,-5.002117,-4.362679,-17.090178,-17.169762,-16.941309,-17.023993,6
47563684,-11.489916,-13.193417,-1.703501,12.341666,-4.893208,-7.448459,-5.000496,-4.352522,-17.081213,-17.161179,-16.933346,-17.017269,6
47565682,-11.542988,-13.211060,-1.668072,12.377024,-4.937458,-7.439566,-4.977655,-4.306650,-17.044258,-17.123556,-16.896200,-16.982174,6
47567680,-11.614370,-13.235521,-1.621151,12.424946,-4.996610,-7.428336,-4.944944,-4.239655,-16.987133,-17.067146,-16.839123,-16.927671,6
47569678,-11.668253,-13.253927,-1.585674,12.461090,-5.041289,-7.419801,-4.919767,-4.186010,-16.938734,-17.018461,-16.790247,-16.880417,6
47571676,-11.676168,-13.260889,-1.584721,12.468529,-5.045724,-7.422805,-4.916334,-4.173088,-16.924524,-17.003489,-16.776609,-16.866732,6
47573674,-11.632538,-13.246536,-1.613998,12.439537,-5.009270,-7.430267,-4.931784,-4.207802,-16.948938,-17.029095,-16.801882,-16.892767,6
47575672,-11.567497,-13.228321,-1.660824,12.397909,-4.953337,-7.444572,-4.963732,-4.274082,-17.001009,-17.081356,-16.854239,-16.945267,6
47577670,-11.514616,-13.212109,-1.697493,12.363362,-4.908562,-7.454801,-4.987431,-4.324150,-17.045832,-17.125893,-16.897821,-16.988134,6
47579669,-11.481810,-13.200808,-1.718998,12.341309,-4.881406,-7.459903,-5.004978,-4.361820,-17.080021,-17.159605,-16.931152,-17.021132,6
47581666,-11.469650,-13.190556,-1.720905,12.330103,-4.874372,-7.455730,-5.004120,-4.369354,-17.091131,-17.170906,-16.942453,-17.030811,6
47583664,-11.496878,-13.198853,-1.701975,12.347865,-4.897451,-7.450414,-4.999113,-4.353762,-17.081070,-17.161608,-16.933060,-17.022943,6
47585662,-11.552048,-13.219166,-1.667118,12.385607,-4.942465,-7.443142,-4.976320,-4.310656,-17.044783,-17.124367,-16.896677,-16.987181,6
47587660,-11.627388,-13.244486,-1.617098,12.435937,-5.005145,-7.430792,-4.941845,-4.241562,-16.987181,-17.067146,-16.839886,-16.931868,6
47589658,-11.682701,-13.261414,-1.578712,12.472057,-5.051994,-7.420063,-4.914093,-4.186392,-16.937780,-17.018414,-16.791058,-16.883421,6
47591656,-11.692238,-13.267803,-1.575565,12.480021,-5.058336,-7.421684,-4.908895,-4.173326,-16.922903,-17.002821,-16.775703,-16.868210,6
47593654,-11.650038,-13.255501,-1.605463,12.452769,-5.022287,-7.430482,-4.927206,-4.207420,-16.948557,-17.028189,-16.800594,-16.893816,6
47595652,-11.580276,-13.234663,-1.654387,12.407470,-4.962945,-7.444525,-4.958916,-4.271078,-17.000198,-17.080116,-16.851807,-16.946125,6
47597651,-11.520910,-13.211536,-1.690626,12.366223,-4.915142,-7.451081,-4.977942,-4.320240,-17.042828,-17.123032,-16.894484,-16.986847,6
47599649,-11.478376,-13.194609,-1.716232,12.336493,-4.881072,-7.455420,-4.989958,-4.353619,-17.074156,-17.154884,-16.927147,-17.018127,6
47601647,-11.470175,-13.192749,-1.722574,12.331462,-4.873800,-7.457662,-5.002356,-4.372501,-17.090750,-17.170477,-16.943455,-17.034149,6
47603645,-11.495352,-13.202810,-1.707458,12.349081,-4.893947,-7.455134,-4.995728,-4.359818,-17.081690,-17.161274,-16.934156,-17.025518,6
47605643,-11.554718,-13.222265,-1.667547,12.388492,-4.943585,-7.444906,-4.973936,-4.314709,-17.044640,-17.124510,-16.897392,-16.989470,6
47607641,-11.634064,-13.247967,-1.613903,12.441015,-5.010080,-7.430935,-4.940844,-4.245234,-16.987610,-17.067528,-16.839409,-16.932678,6
47609639,-11.689043,-13.262939,-1.573896,12.475991,-5.057573,-7.418418,-4.912853,-4.188108,-16.938686,-17.018795,-16.790819,-16.884804,6
47611637,-11.698151,-13.267469,-1.569319,12.482810,-5.064416,-7.418394,-4.904842,-4.171181,-16.922426,-17.002487,-16.774750,-16.869783,6
47613635,-11.651945,-13.252068,-1.600122,12.452006,-5.025911,-7.426095,-4.921484,-4.205513,-16.946888,-17.026901,-16.799307,-16.893959,6
47615634,-11.581182,-13.228130,-1.646948,12.404656,-4.967117,-7.437539,-4.956007,-4.271650,-16.999149,-17.079163,-16.851521,-16.945982,6
47617631,-11.525011,-13.211203,-1.686192,12.368107,-4.919410,-7.448697,-4.982901,-4.326439,-17.044115,-17.123556,-16.896582,-16.990614,6
47619630,-11.486959,-13.200188,-1.713228,12.343574,-4.886866,-7.456708,-4.995441,-4.358864,-17.075634,-17.155504,-16.928720,-17.021847,6
47621627,-11.472225,-13.191080,-1.718855,12.331653,-4.876685,-7.454967,-4.996824,-4.368687,-17.088747,-17.169189,-16.941023,-17.033386,6
47623625,-11.499405,-13.202143,-1.702738,12.350774,-4.898334,-7.452440,-4.992199,-4.357290,-17.081118,-17.161560,-16.933870,-17.026472,6
47625623,-11.554193,-13.222170,-1.667976,12.388182,-4.943109,-7.445073,-4.969931,-4.312325,-17.044497,-17.124128,-16.897106,-16.990280,6
47627621,-11.628675,-13.248730,-1.620054,12.438703,-5.004311,-7.434392,-4.939508,-4.244137,-16.987467,-17.067528,-16.840029,-16.934395,6
47629619,-11.678076,-13.263798,-1.585722,12.470937,-5.046177,-7.424760,-4.911947,-4.187679,-16.938448,-17.017889,-16.790867,-16.885138,6
47631617,-11.686039,-13.265705,-1.579666,12.475872,-5.053186,-7.422686,-4.905748,-4.172182,-16.921949,-17.001772,-16.774893,-16.869497,6
47633615,-11.644554,-13.253164,-1.608610,12.448859,-5.017972,-7.430887,-4.923725,-4.204798,-16.946745,-17.026567,-16.799212,-16.893959,6
47635618,-11.564684,-13.222980,-1.658297,12.393832,-4.953194,-7.440639,-4.925728,-4.241085,-16.988325,-17.067909,-16.839123,-16.931438,6
47637614,-11.469221,-13.171005,-1.701784,12.320113,-4.883718,-7.436395,-4.883957,-4.232073,-17.011118,-17.091799,-16.859341,-16.940403,6
47639612,-11.425304,-13.151455,-1.726151,12.288380,-4.849577,-7.438803,-4.968071,-4.326868,-17.067289,-17.146444,-16.917992,-16.992044,6
47641610,-11.429405,-13.154602,-1.725197,12.292004,-4.852104,-7.439899,-4.992104,-4.356575,-17.087412,-17.166805,-16.938400,-17.008829,6
47643608,-11.464214,-13.172340,-1.708126,12.318277,-4.878044,-7.440233,-4.989338,-4.344893,-17.079592,-17.159176,-16.931009,-17.005014,6
47645606,-11.523819,-13.194084,-1.670265,12.358952,-4.926777,-7.432175,-4.967690,-4.300690,-17.043257,-17.122984,-16.895151,-16.974020,6
47647604,-11.602116,-13.221693,-1.619577,12.411904,-4.991269,-7.420635,-4.932451,-4.233074,-16.986704,-17.065954,-16.838503,-16.921377,6
47649602,-11.660242,-13.242960,-1.582718,12.451601,-5.038762,-7.412839,-4.907179,-4.179764,-16.937447,-17.017174,-16.789865,-16.875601,6
47651600,-11.676598,-13.251066,-1.574469,12.463832,-5.051064,-7.412767,-4.898834,-4.163408,-16.920948,-17.001438,-16.773510,-16.861153,6
47653598,-11.637259,-13.239956,-1.602697,12.438607,-5.017281,-7.421327,-4.914761,-4.196978,-16.945076,-17.025566,-16.797447,-16.886044,6
47655596,-11.569452,-13.220787,-1.651335,12.395120,-4.959059,-7.436061,-4.948092,-4.263830,-16.997099,-17.077017,-16.849375,-16.938257,6
47657594,-11.510229,-13.201904,-1.691675,12.356067,-4.909277,-7.446790,-4.972601,-4.316378,-17.041779,-17.121124,-16.893101,-16.981173,6
47659592,-11.478901,-13.193560,-1.714659,12.336230,-4.882121,-7.454109,-4.993773,-4.354715,-17.076397,-17.156029,-16.928577,-17.015839,6
47661592,-11.471462,-13.188267,-1.716805,12.329865,-4.877329,-7.452536,-4.999256,-4.366970,-17.089796,-17.170525,-16.941977,-17.029095,6
47663588,-11.487055,-13.182783,-1.695728,12.334919,-4.895663,-7.439256,-4.979372,-4.340982,-17.074156,-17.154789,-16.926956,-17.011642,6
47665586,-11.538553,-13.197899,-1.659346,12.368226,-4.939604,-7.428622,-4.960632,-4.303074,-17.040300,-17.120409,-16.892862,-16.977119,6
47667584,-11.620235,-13.228989,-1.608753,12.424612,-5.005741,-7.418871,-4.932022,-4.240084,-16.984701,-17.065716,-16.837692,-16.924906,6
47669582,-11.678696,-13.252068,-1.573372,12.465382,-5.052662,-7.412720,-4.908323,-4.186201,-16.937017,-17.017031,-16.789007,-16.878891,6
47671580,-11.687469,-13.258076,-1.570606,12.472773,-5.058432,-7.414341,-4.900503,-4.169416,-16.919994,-17.000437,-16.772556,-16.862917,6
47673578,-11.649466,-13.246155,-1.596689,12.447810,-5.026388,-7.421422,-4.916859,-4.201746,-16.943789,-17.023325,-16.795921,-16.886425,6
47675576,-11.582613,-13.225985,-1.643372,12.404299,-4.969621,-7.434678,-4.947281,-4.263115,-16.994715,-17.075253,-16.846991,-16.937590,6
47677574,-11.528969,-13.206387,-1.677418,12.367678,-4.925776,-7.441902,-4.970026,-4.311991,-17.039108,-17.119789,-16.890574,-16.980267,6
47679573,-11.492682,-13.195562,-1.702881,12.344122,-4.894900,-7.449222,-4.989100,-4.349756,-17.073250,-17.153406,-16.925287,-17.014599,6
47681570,-11.477232,-13.187122,-1.709890,12.332177,-4.883671,-7.448506,-4.993916,-4.361916,-17.087030,-17.166948,-16.938734,-17.026615,6
47683568,-11.503506,-13.198471,-1.694965,12.350988,-4.904270,-7.446718,-4.992056,-4.352617,-17.080069,-17.159986,-16.932106,-17.020416,6
47685566,-11.560011,-13.218737,-1.658726,12.389374,-4.950643,-7.438731,-4.969549,-4.307938,-17.044544,-17.123890,-16.895485,-16.985178,6
47687564,-11.633396,-13.243723,-1.610327,12.438560,-5.011535,-7.427025,-4.934835,-4.237747,-16.986656,-17.066669,-16.838551,-16.929722,6
47689562,-11.686134,-13.259649,-1.573515,12.472892,-5.056310,-7.416582,-4.906511,-4.180002,-16.936874,-17.016697,-16.789055,-16.881275,6
47691560,-11.696434,-13.263178,-1.566744,12.479806,-5.064845,-7.414961,-4.896975,-4.162121,-16.920042,-16.999578,-16.771984,-16.865110,6
47693558,-11.653709,-13.249207,-1.595497,12.451458,-5.029106,-7.422352,-4.913616,-4.191923,-16.943026,-17.022467,-16.795397,-16.888618,6
47695556,-11.583376,-13.228703,-1.645327,12.406039,-4.969025,-7.437015,-4.945850,-4.255486,-16.994381,-17.074060,-16.846895,-16.939163,6
47697555,-11.522818,-13.209772,-1.686954,12.366295,-4.917932,-7.448363,-4.971886,-4.307127,-17.038918,-17.118788,-16.890812,-16.982889,6
47699552,-11.485147,-13.197851,-1.712704,12.341499,-4.886222,-7.455277,-4.985905,-4.342842,-17.071342,-17.151308,-16.923618,-17.015171,6
47701550,-11.476183,-13.194370,-1.718187,12.335277,-4.878998,-7.456279,-4.992723,-4.361343,-17.087078,-17.167473,-16.939211,-17.030334,6
47703548,-11.502361,-13.205719,-1.703358,12.354040,-4.899502,-7.454538,-4.988384,-4.351234,-17.080259,-17.159891,-16.931963,-17.023611,6
47705546,-11.556053,-13.221931,-1.665878,12.388992,-4.945087,-7.443905,-4.967880,-4.307127,-17.044258,-17.123938,-16.896296,-16.988468,6
47707544,-11.629486,-13.247013,-1.617527,12.438250,-5.005980,-7.432270,-4.934978,-4.240417,-16.987276,-17.067909,-16.839600,-16.932440,6
47709542,-11.679268,-13.262463,-1.583195,12.470865,-5.048037,-7.422829,-4.907799,-4.184198,-16.936731,-17.017555,-16.789722,-16.883326,6
47711540,-11.689043,-13.264084,-1.575041,12.476563,-5.057001,-7.419562,-4.897642,-4.166508,-16.920328,-17.000151,-16.772461,-16.866207,6
47713538,-11.649704,-13.251925,-1.602221,12.450814,-5.023742,-7.427073,-4.912472,-4.195356,-16.943264,-17.022705,-16.795301,-16.889763,6
47715537,-11.580610,-13.230038,-1.649427,12.405324,-4.965591,-7.439733,-4.943895,-4.258347,-16.994810,-17.073250,-16.846752,-16.940784,6
47717535,-11.518669,-13.210487,-1.691818,12.364578,-4.913425,-7.451153,-4.968214,-4.311180,-17.038870,-17.117596,-16.890478,-16.984272,6
47719532,-11.480188,-13.195848,-1.715660,12.338018,-4.882264,-7.455754,-4.982567,-4.346132,-17.071247,-17.150307,-16.922760,-17.015266,6
47721530,-11.477661,-13.196564,-1.718903,12.337112,-4.879379,-7.457733,-4.993153,-4.365683,-17.088366,-17.167568,-16.940212,-17.032528,6
47723528,-11.504078,-13.206768,-1.702690,12.355423,-4.900694,-7.454729,-4.986858,-4.351664,-17.080069,-17.159557,-16.931677,-17.024374,6
47725526,-11.555481,-13.225603,-1.670122,12.390542,-4.942679,-7.447863,-4.967499,-4.307795,-17.045307,-17.124033,-16.896677,-16.990042,6
47727524,-11.629391,-13.251543,-1.622152,12.440467,-5.003619,-7.436848,-4.936361,-4.238319,-16.988039,-17.067528,-16.839695,-16.934967,6
47729522,-11.684752,-13.270950,-1.586199,12.477851,-5.049276,-7.428575,-4.910278,-4.181099,-16.937017,-17.018127,-16.790485,-16.884851,6
47731520,-11.694288,-13.277388,-1.583099,12.485838,-5.055594,-7.430243,-4.904985,-4.165506,-16.920519,-17.001104,-16.773844,-16.868019,6
47733518,-11.647749,-13.263083,-1.615334,12.455416,-5.016208,-7.439208,-4.921913,-4.196787,-16.943598,-17.023897,-16.795874,-16.891289,6
47735518,-11.577702,-13.241863,-1.664162,12.409782,-4.956770,-7.453012,-4.953146,-4.260635,-16.995001,-17.074490,-16.846323,-16.941881,6
47737517,-11.509705,-13.210630,-1.700926,12.360168,-4.904389,-7.455778,-4.943085,-4.281950,-17.027664,-17.107773,-16.877842,-16.970921,6
47739515,-11.437654,-13.169193,-1.731539,12.303424,-4.853058,-7.450366,-4.896307,-4.257536,-17.041254,-17.121506,-16.889858,-16.970348,6
47741513,-11.421776,-13.161945,-1.740170,12.291861,-4.840803,-7.451057,-4.976368,-4.336548,-17.081451,-17.161608,-16.933298,-17.009401,6
47743511,-11.453724,-13.177967,-1.724243,12.315845,-4.864740,-7.451105,-4.986811,-4.338455,-17.079306,-17.158842,-16.930723,-17.010641,6
47745509,-11.513472,-13.201046,-1.687574,12.357259,-4.912949,-7.444310,-4.966402,-4.297447,-17.045212,-17.124844,-16.895771,-16.979885,6
47747507,-11.592531,-13.229656,-1.637125,12.411094,-4.977703,-7.433391,-4.933023,-4.228687,-16.988850,-17.068720,-16.840792,-16.927052,6
47749505,-11.653090,-13.251352,-1.598263,12.452221,-5.027413,-7.424808,-4.906845,-4.172897,-16.937923,-17.018032,-16.790438,-16.878986,6
47751503,-11.668730,-13.259411,-1.590681,12.464070,-5.039024,-7.425046,-4.897976,-4.155159,-16.920137,-17.000532,-16.772461,-16.862154,6
47753501,-11.632490,-13.251305,-1.618814,12.441897,-5.006838,-7.435060,-4.917002,-4.186201,-16.943026,-17.023849,-16.795206,-16.886044,6
47755502,-11.567640,-13.232756,-1.665115,12.400198,-4.951262,-7.448936,-4.949808,-4.250717,-16.994286,-17.075014,-16.846228,-16.937304,6
47757499,-11.508417,-13.213110,-1.704693,12.360764,-4.901862,-7.458901,-4.974651,-4.306412,-17.039061,-17.119598,-16.891098,-16.981316,6
47759496,-11.472082,-13.196325,-1.724243,12.334204,-4.873919,-7.460284,-4.985285,-4.338598,-17.071533,-17.151546,-16.923761,-17.012358,6
47761494,-11.467600,-13.189363,-1.721764,12.328482,-4.872918,-7.455564,-4.990673,-4.355192,-17.086744,-17.166519,-16.939020,-17.025232,6
47763492,-11.496019,-13.199377,-1.703358,12.347698,-4.896331,-7.451367,-4.986954,-4.346752,-17.080069,-17.160654,-16.932106,-17.019224,6
47765490,-11.547899,-13.215494,-1.667595,12.381697,-4.940152,-7.441545,-4.967260,-4.304266,-17.045212,-17.125559,-16.897297,-16.986084,6
47767488,-11.620569,-13.237047,-1.616478,12.428808,-5.002046,-7.426763,-4.932928,-4.231501,-16.988182,-17.067242,-16.840267,-16.930628,6
47769486,-11.670589,-13.247871,-1.577282,12.459230,-5.046654,-7.412577,-4.894733,-4.163361,-16.933155,-17.013121,-16.784525,-16.875172,6
47771484,-11.679077,-13.254309,-1.575232,12.466693,-5.051923,-7.414770,-4.892969,-4.151249,-16.915941,-16.996336,-16.767836,-16.858244,6
47773482,-11.643839,-13.248587,-1.604748,12.446213,-5.019546,-7.426667,-4.915810,-4.187965,-16.940403,-17.019939,-16.792631,-16.882944,6
47775480,-11.577415,-13.232040,-1.654625,12.404728,-4.961395,-7.443333,-4.950857,-4.255724,-16.992426,-17.072105,-16.845322,-16.934586,6
47777478,-11.518335,-13.216448,-1.698112,12.367392,-4.910111,-7.457280,-4.974413,-4.311323,-17.037439,-17.117596,-16.889429,-16.979742,6
47779476,-11.483526,-13.206100,-1.722574,12.344813,-4.880476,-7.464337,-4.994726,-4.352903,-17.073584,-17.153549,-16.925526,-17.015553,6
47781474,-11.472893,-13.202858,-1.729965,12.337875,-4.871464,-7.466412,-5.001736,-4.369450,-17.089939,-17.170000,-16.942358,-17.032003,6
47783472,-11.491394,-13.207388,-1.715994,12.349391,-4.887700,-7.461691,-4.988861,-4.351807,-17.079782,-17.159033,-16.931391,-17.019606,6
47785470,-11.543608,-13.224745,-1.681137,12.384176,-4.931235,-7.452941,-4.970264,-4.308319,-17.044973,-17.124605,-16.897011,-16.985750,6
47787468,-11.619759,-13.250637,-1.630878,12.435198,-4.994440,-7.440758,-4.937029,-4.241419,-16.988897,-17.068911,-16.841507,-16.932106,6
47789466,-11.671591,-13.266134,-1.594543,12.468863,-5.038524,-7.430339,-4.909611,-4.184961,-16.938591,-17.018414,-16.790438,-16.882849,6
47791464,-11.680698,-13.270140,-1.589441,12.475419,-5.045629,-7.429790,-4.902697,-4.167843,-16.920042,-16.999626,-16.772699,-16.865683,6
47793462,-11.643362,-13.258553,-1.615191,12.450957,-5.014086,-7.436872,-4.917908,-4.196358,-16.942072,-17.021704,-16.794062,-16.887140,6
47795460,-11.574316,-13.238096,-1.663780,12.406206,-4.955268,-7.450938,-4.950953,-4.260254,-16.993475,-17.072868,-16.845655,-16.938019,6
47797457,-11.519527,-13.219690,-1.700163,12.369609,-4.909682,-7.459927,-4.972744,-4.310465,-17.037821,-17.117929,-16.889858,-16.982222,6
47799455,-11.490917,-13.213062,-1.722145,12.351990,-4.884386,-7.467604,-4.993534,-4.350948,-17.074156,-17.153358,-16.925907,-17.017555,6
47801454,-11.484003,-13.210821,-1.726818,12.347412,-4.878592,-7.468820,-5.000067,-4.366732,-17.090845,-17.170620,-16.941881,-17.035055,6
47803452,-11.506128,-13.217354,-1.711226,12.361741,-4.897451,-7.464290,-4.993153,-4.353952,-17.082596,-17.162991,-16.934252,-17.027473,6
