timestamp_us,I_mV,II_mV,III_mV,aVR_mV,aVL_mV,aVF_mV,V1_mV,V2_mV,V3_mV,V4_mV,V5_mV,V6_mV,gain
942872633,-11.569357,-13.173437,-1.604080,12.371397,-4.982638,-7.388759,-4.897642,-4.229927,-16.961765,-17.041636,-16.813803,-16.907024,6
942874630,-11.564064,-13.168955,-1.604891,12.366509,-4.979587,-7.386923,-4.894590,-4.229069,-16.961813,-17.042017,-16.814137,-16.907215,6
942876628,-11.552286,-13.163328,-1.611042,12.357807,-4.970622,-7.387185,-4.894257,-4.232836,-16.965675,-17.046118,-16.817427,-16.910648,6
942878626,-11.543798,-13.161373,-1.617575,12.352586,-4.963112,-7.389474,-4.902363,-4.241705,-16.970921,-17.051363,-16.822958,-16.916180,6
942880624,-11.541510,-13.163757,-1.622248,12.352633,-4.959631,-7.393003,-4.907990,-4.248524,-16.975355,-17.055368,-16.827536,-16.920757,6
942882622,-11.543417,-13.165665,-1.622248,12.354541,-4.960585,-7.393956,-4.909468,-4.250479,-16.976404,-17.056084,-16.828871,-16.922045,6
942884620,-11.548710,-13.167191,-1.618481,12.357950,-4.965115,-7.392836,-4.909182,-4.247999,-16.976070,-17.055559,-16.828442,-16.921520,6
942886618,-11.551857,-13.168478,-1.616621,12.360168,-4.967618,-7.392550,-4.905891,-4.243469,-16.972256,-17.051506,-16.824293,-16.917849,6
942888616,-11.559105,-13.172579,-1.613474,12.365842,-4.972816,-7.393026,-4.901457,-4.236555,-16.967821,-17.047119,-16.819811,-16.913462,6
942890614,-11.561346,-13.173199,-1.611853,12.367272,-4.974747,-7.392526,-4.899454,-4.231167,-16.963339,-17.043209,-16.815376,-16.909456,6
942892613,-11.561584,-13.172007,-1.610422,12.366796,-4.975581,-7.391214,-4.899645,-4.228115,-16.962528,-17.042923,-16.814423,-16.908836,6
942894610,-11.558771,-13.170195,-1.611423,12.364483,-4.973674,-7.390809,-4.898453,-4.226255,-16.963768,-17.043018,-16.814899,-16.909122,6
942896608,-11.554050,-13.170958,-1.616907,12.362504,-4.968572,-7.393932,-4.902315,-4.233170,-16.968679,-17.048264,-16.820812,-16.915369,6
942898606,-11.546373,-13.164616,-1.618242,12.355494,-4.964066,-7.391429,-4.898596,-4.232979,-16.971207,-17.050266,-16.822672,-16.916656,6
942900604,-11.546421,-13.164663,-1.618242,12.355542,-4.964089,-7.391453,-4.905987,-4.240513,-16.975164,-17.054367,-16.826439,-16.920614,6
942902602,-11.548185,-13.165808,-1.617622,12.356997,-4.965281,-7.391715,-4.908276,-4.244852,-16.975975,-17.055607,-16.827679,-16.921854,6
942904600,-11.556244,-13.169909,-1.613665,12.363076,-4.971290,-7.391787,-4.908037,-4.245806,-16.974545,-17.054653,-16.827536,-16.921520,6
942906598,-11.561441,-13.174200,-1.612759,12.367821,-4.974341,-7.393479,-4.906368,-4.243374,-16.971493,-17.051888,-16.823483,-16.917896,6
942908596,-11.571598,-13.179398,-1.607800,12.375498,-4.981899,-7.393599,-4.902506,-4.236317,-16.966772,-17.047024,-16.819048,-16.913509,6
942910594,-11.579227,-13.181877,-1.602650,12.380552,-4.988289,-7.392263,-4.898357,-4.229975,-16.961861,-17.041731,-16.814327,-16.908836,6
942912593,-11.582136,-13.183403,-1.601267,12.382770,-4.990435,-7.392335,-4.897261,-4.229403,-16.961479,-17.041969,-16.813755,-16.908741,6
942914590,-11.576509,-13.182783,-1.606274,12.379646,-4.985118,-7.394528,-4.895401,-4.230547,-16.962910,-17.042732,-16.815519,-16.909647,6
942916591,-11.564350,-13.175058,-1.610708,12.369704,-4.976821,-7.392883,-4.886341,-4.224443,-16.964054,-17.044258,-16.815758,-16.909695,6
942918589,-11.524105,-13.139391,-1.615286,12.331748,-4.954410,-7.377338,-4.810619,-4.158068,-16.943026,-17.023993,-16.789532,-16.874886,6
942920587,-11.502171,-13.124371,-1.622200,12.313271,-4.939985,-7.373285,-4.861403,-4.203415,-16.962147,-17.042637,-16.811228,-16.889858,6
942922585,-11.506367,-13.130188,-1.623821,12.318277,-4.941273,-7.377005,-4.896688,-4.233932,-16.973400,-17.053175,-16.824722,-16.906071,6
942924583,-11.516809,-13.137579,-1.620770,12.327194,-4.948020,-7.379174,-4.896402,-4.233932,-16.973400,-17.052603,-16.824579,-16.908121,6
942926581,-11.531162,-13.143301,-1.612139,12.337232,-4.959512,-7.377720,-4.892778,-4.232073,-16.969395,-17.049170,-16.821957,-16.906929,6
942928579,-11.541653,-13.148594,-1.606941,12.345123,-4.967356,-7.377768,-4.891825,-4.227448,-16.965914,-17.046309,-16.818142,-16.904449,6
942930576,-11.546612,-13.150883,-1.604271,12.348747,-4.971170,-7.377577,-4.891491,-4.224634,-16.963196,-17.042685,-16.814804,-16.902113,6
942932577,-11.549091,-13.155174,-1.606083,12.352133,-4.971504,-7.380629,-4.891825,-4.225302,-16.962481,-17.042446,-16.814613,-16.902924,6
942934574,-11.544847,-13.152456,-1.607609,12.348652,-4.968619,-7.380033,-4.889250,-4.224730,-16.962719,-17.043400,-16.814613,-16.903257,6
942936570,-11.534452,-13.143301,-1.608849,12.338877,-4.962802,-7.376075,-4.888821,-4.224825,-16.964912,-17.044783,-16.817284,-16.904831,6
942938568,-11.527348,-13.139582,-1.612234,12.333465,-4.957557,-7.375908,-4.893446,-4.230976,-16.967821,-17.048025,-16.820812,-16.907454,6
942940566,-11.532307,-13.145304,-1.612997,12.338805,-4.959655,-7.379150,-4.901743,-4.240322,-16.972876,-17.053652,-16.825628,-16.913795,6
942942564,-11.534882,-13.148499,-1.613617,12.341690,-4.960632,-7.381058,-4.904699,-4.244995,-16.974640,-17.054605,-16.826820,-16.915751,6
942944562,-11.540127,-13.154697,-1.614571,12.347412,-4.962778,-7.384634,-4.904366,-4.243279,-16.974401,-17.054224,-16.826439,-16.915798,6
942946560,-11.547613,-13.157415,-1.609802,12.352514,-4.968905,-7.383609,-4.901505,-4.241180,-16.971779,-17.051506,-16.823483,-16.913462,6
942948558,-11.559343,-13.164806,-1.605463,12.362075,-4.976940,-7.385135,-4.898930,-4.237890,-16.967392,-17.046738,-16.819239,-16.909647,6
942950555,-11.565876,-13.169146,-1.603270,12.367511,-4.981303,-7.386208,-4.896259,-4.232550,-16.962194,-17.042446,-16.815281,-16.906071,6
942952555,-11.567926,-13.173151,-1.605225,12.370539,-4.981351,-7.389188,-4.897881,-4.231215,-16.963053,-17.042398,-16.814613,-16.905832,6
942954551,-11.562157,-13.170624,-1.608467,12.366390,-4.976845,-7.389545,-4.896259,-4.229164,-16.963673,-17.042732,-16.814041,-16.906261,6
942956549,-11.549282,-13.165903,-1.616621,12.357593,-4.966331,-7.391262,-4.898024,-4.233360,-16.966724,-17.046642,-16.817904,-16.909170,6
942958547,-11.541605,-13.165760,-1.624155,12.353683,-4.958725,-7.394958,-4.906797,-4.243994,-16.971684,-17.051792,-16.824579,-16.915607,6
942960545,-11.540842,-13.169146,-1.628304,12.354994,-4.956269,-7.398725,-4.913425,-4.251957,-16.976881,-17.056465,-16.828823,-16.920757,6
942962543,-11.544752,-13.169861,-1.625109,12.357306,-4.959822,-7.397485,-4.914522,-4.254055,-16.978216,-17.057991,-16.830301,-16.921997,6
942964541,-11.555910,-13.175106,-1.619196,12.365508,-4.968357,-7.397151,-4.912949,-4.250526,-16.977119,-17.057800,-16.829586,-16.921520,6
942966539,-11.566257,-13.178873,-1.612616,12.372565,-4.976821,-7.395744,-4.908276,-4.243803,-16.973543,-17.054129,-16.825867,-16.919041,6
942968537,-11.576271,-13.182259,-1.605988,12.379265,-4.985142,-7.394123,-4.904795,-4.237461,-16.968441,-17.048454,-16.821337,-16.914034,6
942970535,-11.583328,-13.184166,-1.600838,12.383747,-4.991245,-7.392502,-4.903412,-4.234552,-16.963768,-17.043352,-16.816473,-16.908741,6
942972534,-11.588478,-13.190603,-1.602125,12.389541,-4.993176,-7.396364,-4.904604,-4.234838,-16.963387,-17.043304,-16.815996,-16.908789,6
942974531,-11.583281,-13.188362,-1.605082,12.385821,-4.989100,-7.396722,-4.904079,-4.235268,-16.963577,-17.043447,-16.815662,-16.909027,6
942976529,-11.569405,-13.180685,-1.611280,12.375045,-4.979062,-7.395983,-4.902554,-4.237509,-16.966629,-17.045927,-16.818380,-16.911125,6
942978527,-11.562204,-13.178015,-1.615810,12.370110,-4.973197,-7.396913,-4.909706,-4.245138,-16.971445,-17.051172,-16.823101,-16.915894,6
942980525,-11.565590,-13.184738,-1.619148,12.375164,-4.973221,-7.401943,-4.915285,-4.250240,-16.975164,-17.055321,-16.827631,-16.920853,6
942982523,-11.564112,-13.186741,-1.622629,12.375426,-4.970741,-7.404685,-4.916143,-4.250622,-16.976309,-17.056799,-16.828966,-16.922665,6
942984521,-11.563253,-13.189030,-1.625776,12.376142,-4.968739,-7.407403,-4.917431,-4.251289,-16.977406,-17.056847,-16.828823,-16.922760,6
942986519,-11.565733,-13.190126,-1.624393,12.377930,-4.970670,-7.407260,-4.917097,-4.247952,-16.974497,-17.053699,-16.824770,-16.919708,6
942988517,-11.571121,-13.192797,-1.621675,12.381959,-4.974723,-7.407236,-4.912424,-4.242420,-16.969395,-17.048883,-16.820574,-16.915417,6
942990515,-11.576986,-13.194180,-1.617193,12.385583,-4.979897,-7.405686,-4.907036,-4.235649,-16.964006,-17.043734,-16.816616,-16.910172,6
942992513,-11.579180,-13.195324,-1.616144,12.387252,-4.981518,-7.405734,-4.906273,-4.234934,-16.964483,-17.043543,-16.816187,-16.910219,6
942994510,-11.574697,-13.194656,-1.619959,12.384677,-4.977369,-7.407308,-4.906845,-4.239130,-16.966724,-17.045736,-16.817665,-16.912794,6
942996508,-11.565590,-13.193464,-1.627874,12.379527,-4.968858,-7.410669,-4.907084,-4.244328,-16.970968,-17.051125,-16.822529,-16.917324,6
942998508,-11.561203,-13.189650,-1.628447,12.375426,-4.966378,-7.409048,-4.909325,-4.249287,-16.975212,-17.055368,-16.827059,-16.921949,6
943000504,-11.558580,-13.182831,-1.624250,12.370706,-4.967165,-7.403541,-4.903173,-4.245710,-16.974783,-17.055321,-16.826773,-16.920900,6
943002502,-11.557770,-13.180399,-1.622629,12.369084,-4.967570,-7.401514,-4.903746,-4.245472,-16.973209,-17.054176,-16.826296,-16.919756,6
943004500,-11.561871,-13.183880,-1.622009,12.372875,-4.969931,-7.402945,-4.906511,-4.248428,-16.974735,-17.055130,-16.827917,-16.921234,6
943006499,-11.568260,-13.183784,-1.615524,12.376022,-4.976368,-7.399654,-4.903507,-4.242754,-16.971493,-17.051697,-16.824389,-16.917658,6
943008497,-11.569357,-13.177872,-1.608515,12.373614,-4.980421,-7.393193,-4.889441,-4.225397,-16.962337,-17.042494,-16.814899,-16.907835,6
943010495,-11.572409,-13.177061,-1.604652,12.374735,-4.983878,-7.390857,-4.889536,-4.223680,-16.958046,-17.037678,-16.810036,-16.903448,6
943012494,-11.580324,-13.185072,-1.604748,12.382698,-4.987788,-7.394910,-4.896498,-4.229879,-16.959810,-17.039490,-16.811562,-16.905308,6
943014490,-11.573744,-13.181734,-1.607990,12.377739,-4.982877,-7.394862,-4.895782,-4.229927,-16.961908,-17.041254,-16.812611,-16.905403,6
943016488,-11.559439,-13.172197,-1.612759,12.365818,-4.973340,-7.392478,-4.892302,-4.229212,-16.963625,-17.043257,-16.815615,-16.908169,6
943018489,-11.549044,-13.165092,-1.616049,12.357068,-4.966497,-7.390571,-4.886293,-4.228783,-16.964340,-17.044067,-16.815710,-16.907549,6
943020487,-11.516666,-13.139343,-1.622677,12.328005,-4.946995,-7.381010,-4.812717,-4.162121,-16.943741,-17.024183,-16.790771,-16.869926,6
943022485,-11.499119,-13.127041,-1.627922,12.313080,-4.935598,-7.377481,-4.865932,-4.207516,-16.963005,-17.042542,-16.812134,-16.881084,6
943024483,-11.505890,-13.130569,-1.624680,12.318230,-4.940605,-7.377625,-4.896212,-4.233360,-16.971684,-17.051888,-16.822910,-16.896439,6
943026482,-11.514711,-13.136339,-1.621628,12.325525,-4.946542,-7.378983,-4.893875,-4.230928,-16.969490,-17.049408,-16.820526,-16.897106,6
943028480,-11.520815,-13.135481,-1.614666,12.328148,-4.953074,-7.375073,-4.881859,-4.218721,-16.961336,-17.041349,-16.812658,-16.886759,6
943030477,-11.530018,-13.139105,-1.609087,12.334561,-4.960465,-7.374096,-4.885387,-4.218340,-16.958809,-17.039251,-16.809940,-16.883087,6
943032477,-11.538839,-13.144445,-1.605606,12.341642,-4.966617,-7.375026,-4.887342,-4.218531,-16.959190,-17.039585,-16.811180,-16.886568,6
943034473,-11.540890,-13.147783,-1.606894,12.344337,-4.966998,-7.377338,-4.886913,-4.218817,-16.959047,-17.039442,-16.811466,-16.889811,6
943036471,-11.542273,-13.152790,-1.610518,12.347531,-4.965878,-7.381654,-4.895782,-4.228163,-16.965818,-17.045498,-16.817760,-16.897249,6
943038470,-11.541700,-13.155794,-1.614094,12.348747,-4.963803,-7.384944,-4.900408,-4.234648,-16.970348,-17.049885,-16.822290,-16.902924,6
943040467,-11.536646,-13.152218,-1.615572,12.344432,-4.960537,-7.383895,-4.896212,-4.234505,-16.971159,-17.051125,-16.822672,-16.903543,6
943042465,-11.539745,-13.155365,-1.615620,12.347555,-4.962063,-7.385492,-4.899263,-4.239750,-16.972160,-17.052031,-16.823673,-16.904306,6
943044463,-11.553383,-13.166237,-1.612854,12.359810,-4.970264,-7.389545,-4.902649,-4.243326,-16.973782,-17.054081,-16.825104,-16.907644,6
943046461,-11.560249,-13.169527,-1.609278,12.364888,-4.975486,-7.389402,-4.901505,-4.240894,-16.971159,-17.050886,-16.822386,-16.907263,6
943048459,-11.571121,-13.175344,-1.604223,12.373233,-4.983449,-7.389784,-4.898167,-4.236269,-16.966867,-17.046118,-16.818714,-16.904354,6
943050457,-11.579800,-13.178968,-1.599169,12.379384,-4.990315,-7.389069,-4.895544,-4.232502,-16.962528,-17.042017,-16.814566,-16.900969,6
943052456,-11.583424,-13.182402,-1.598978,12.382913,-4.992223,-7.390690,-4.896259,-4.232264,-16.962147,-17.041683,-16.814375,-16.901207,6
943054454,-11.578703,-13.180876,-1.602173,12.379789,-4.988265,-7.391524,-4.895163,-4.234695,-16.962767,-17.042542,-16.815042,-16.903257,6
943056451,-11.570168,-13.180780,-1.610613,12.375474,-4.979777,-7.395697,-4.901457,-4.242516,-16.968489,-17.048407,-16.820240,-16.908932,6
943058449,-11.558294,-13.173389,-1.615095,12.365842,-4.971600,-7.394242,-4.897976,-4.240465,-16.970253,-17.049980,-16.821480,-16.909122,6
943060447,-11.552286,-13.172913,-1.620626,12.362599,-4.965830,-7.396770,-4.905128,-4.246426,-16.975260,-17.054844,-16.826820,-16.914415,6
943062445,-11.551189,-13.175154,-1.623964,12.363172,-4.963613,-7.399559,-4.908180,-4.251194,-16.977930,-17.057419,-16.829443,-16.917992,6
943064443,-11.556673,-13.179636,-1.622963,12.368155,-4.966855,-7.401299,-4.906845,-4.250240,-16.977215,-17.057085,-16.829443,-16.918516,6
943066441,-11.565590,-13.182020,-1.616430,12.373805,-4.974580,-7.399225,-4.904604,-4.245615,-16.972637,-17.052746,-16.825008,-16.915417,6
943068439,-11.572218,-13.185787,-1.613569,12.379003,-4.979324,-7.399678,-4.903793,-4.239416,-16.968822,-17.048073,-16.820955,-16.911697,6
943070437,-11.576843,-13.186789,-1.609945,12.381816,-4.983449,-7.398367,-4.901600,-4.233742,-16.964245,-17.043114,-16.815567,-16.907072,6
943072435,-11.578131,-13.185310,-1.607180,12.381721,-4.985476,-7.396245,-4.899311,-4.232454,-16.962910,-17.041969,-16.814661,-16.906357,6
943074433,-11.570549,-13.180637,-1.610088,12.375593,-4.980230,-7.395363,-4.896259,-4.231024,-16.962337,-17.042446,-16.814756,-16.906261,6
943076431,-11.557531,-13.172197,-1.614666,12.364864,-4.971433,-7.393432,-4.893875,-4.230547,-16.964388,-17.044640,-16.817284,-16.908169,6
943078429,-11.551714,-13.172150,-1.620436,12.361932,-4.965639,-7.396293,-4.903889,-4.240465,-16.971016,-17.051411,-16.823244,-16.913939,6
943080427,-11.553049,-13.174105,-1.621056,12.363577,-4.965997,-7.397580,-4.908037,-4.245377,-16.975641,-17.056131,-16.827631,-16.918421,6
943082425,-11.552191,-13.174486,-1.622295,12.363338,-4.964948,-7.398391,-4.908895,-4.247856,-16.976452,-17.056513,-16.828442,-16.919661,6
943084423,-11.553621,-13.178444,-1.624823,12.366033,-4.964399,-7.401633,-4.911280,-4.248667,-16.977119,-17.056608,-16.828728,-16.920519,6
943086421,-11.556768,-13.182211,-1.625443,12.369490,-4.965663,-7.403827,-4.910040,-4.244614,-16.973639,-17.054033,-16.825581,-16.918087,6
943088419,-11.566019,-13.189173,-1.623154,12.377596,-4.971433,-7.406163,-4.908657,-4.240465,-16.969299,-17.050076,-16.821623,-16.914415,6
943090416,-11.570787,-13.190317,-1.619530,12.380552,-4.975629,-7.404923,-4.903936,-4.234648,-16.964769,-17.044973,-16.817617,-16.910505,6
943092415,-11.567879,-13.188648,-1.620770,12.378263,-4.973555,-7.404709,-4.902792,-4.234219,-16.964626,-17.044830,-16.817904,-16.910410,6
943094412,-11.559439,-13.184452,-1.625013,12.371945,-4.967213,-7.404733,-4.901457,-4.236412,-16.965342,-17.044830,-16.818476,-16.911459,6
943096410,-11.550617,-13.181686,-1.631069,12.366152,-4.959774,-7.406378,-4.907656,-4.244184,-16.971064,-17.050648,-16.822910,-16.916656,6
943098408,-11.542225,-13.179493,-1.637268,12.360859,-4.952478,-7.408381,-4.911518,-4.251337,-16.974640,-17.055082,-16.826916,-16.920042,6
943100406,-11.538410,-13.178730,-1.640320,12.358570,-4.949045,-7.409525,-4.910803,-4.253483,-16.976452,-17.056131,-16.828108,-16.920519,6
943102404,-11.537600,-13.180780,-1.643181,12.359190,-4.947209,-7.411981,-4.916000,-4.260731,-16.979313,-17.059088,-16.830921,-16.923857,6
943104402,-11.541224,-13.185406,-1.644182,12.363315,-4.948521,-7.414794,-4.918861,-4.264307,-16.980743,-17.060375,-16.832685,-16.925144,6
943106403,-11.547756,-13.189125,-1.641369,12.368441,-4.953194,-7.415247,-4.916477,-4.261112,-16.977501,-17.057514,-16.830063,-16.922331,6
943108398,-11.558342,-13.191986,-1.633644,12.375164,-4.962349,-7.412815,-4.913807,-4.256201,-16.972637,-17.053556,-16.825533,-16.918135,6
943110396,-11.565399,-13.194609,-1.629210,12.380004,-4.968095,-7.411909,-4.911947,-4.251528,-16.967487,-17.047977,-16.820574,-16.913557,6
943112397,-11.569595,-13.197947,-1.628351,12.383771,-4.970622,-7.413149,-4.910088,-4.248238,-16.965771,-17.045832,-16.819000,-16.911840,6
943114392,-11.565733,-13.195038,-1.629305,12.380385,-4.968214,-7.412171,-4.907942,-4.246092,-16.966152,-17.046070,-16.818714,-16.912031,6
943116390,-11.562920,-13.194609,-1.631689,12.378764,-4.965615,-7.413149,-4.913187,-4.253960,-16.972494,-17.051649,-16.824293,-16.918516,6
943118388,-11.559725,-13.193083,-1.633358,12.376404,-4.963183,-7.413220,-4.911613,-4.255676,-16.974926,-17.054844,-16.827345,-16.921329,6
943120388,-11.552668,-13.188267,-1.635599,12.370467,-4.958534,-7.411933,-4.908848,-4.253101,-16.975689,-17.055511,-16.828203,-16.921282,6
943122387,-11.536407,-13.172245,-1.635838,12.354326,-4.950285,-7.404041,-4.865408,-4.212523,-16.962147,-17.042017,-16.811562,-16.900158,6
943124385,-11.502790,-13.145924,-1.643133,12.324357,-4.929829,-7.394528,-4.835701,-4.182816,-16.954899,-17.035103,-16.802406,-16.879225,6
943126383,-11.504316,-13.145781,-1.641464,12.325048,-4.931426,-7.393622,-4.900026,-4.238081,-16.972828,-17.053175,-16.823435,-16.902065,6
943128381,-11.515570,-13.151646,-1.636076,12.333608,-4.939747,-7.393861,-4.903650,-4.238272,-16.970110,-17.050743,-16.821671,-16.902924,6
943130379,-11.525774,-13.158369,-1.632595,12.342072,-4.946589,-7.395482,-4.903555,-4.235554,-16.964817,-17.045593,-16.817236,-16.899920,6
943132379,-11.534166,-13.166571,-1.632404,12.350368,-4.950881,-7.399487,-4.905796,-4.238176,-16.964388,-17.044353,-16.817188,-16.901064,6
943134376,-11.535740,-13.168430,-1.632690,12.352085,-4.951525,-7.400560,-4.904222,-4.238176,-16.965485,-17.045259,-16.817522,-16.902828,6
943136373,-11.534023,-13.168478,-1.634455,12.351251,-4.949784,-7.401466,-4.909134,-4.245758,-16.971207,-17.050791,-16.823483,-16.908646,6
943138371,-11.531925,-13.168669,-1.636744,12.350297,-4.947591,-7.402706,-4.914474,-4.253340,-16.975832,-17.055845,-16.828251,-16.914654,6
943140369,-11.529732,-13.172340,-1.642609,12.351036,-4.943562,-7.407475,-4.917097,-4.255915,-16.978979,-17.059135,-16.831112,-16.919279,6
943142367,-11.526299,-13.167429,-1.641130,12.346864,-4.942584,-7.404280,-4.909658,-4.250193,-16.976595,-17.056179,-16.828585,-16.915178,6
943144365,-11.532879,-13.167191,-1.634312,12.350035,-4.949284,-7.400751,-4.910278,-4.252338,-16.977501,-17.057228,-16.829300,-16.915846,6
943146363,-11.540604,-13.169098,-1.628494,12.354851,-4.956055,-7.398796,-4.907942,-4.249144,-16.974735,-17.054892,-16.827250,-16.914368,6
943148361,-11.548853,-13.170767,-1.621914,12.359810,-4.963470,-7.396340,-4.903650,-4.243422,-16.970587,-17.050695,-16.822910,-16.911173,6
943150359,-11.552668,-13.172102,-1.619434,12.362385,-4.966617,-7.395768,-4.900885,-4.238558,-16.965961,-17.045975,-16.817999,-16.907024,6
943152360,-11.554289,-13.175440,-1.621151,12.364864,-4.966569,-7.398295,-4.903173,-4.239845,-16.964769,-17.045307,-16.817141,-16.908455,6
943154356,-11.547661,-13.170815,-1.623154,12.359238,-4.962254,-7.396984,-4.899693,-4.236746,-16.964245,-17.045164,-16.816759,-16.907406,6
943156353,-11.534977,-13.161278,-1.626301,12.348127,-4.954338,-7.393789,-4.895973,-4.237843,-16.967726,-17.048264,-16.820526,-16.908741,6
943158351,-11.528254,-13.158464,-1.630211,12.343359,-4.949021,-7.394338,-4.900932,-4.248571,-16.973829,-17.054415,-16.826248,-16.914701,6
943160350,-11.530256,-13.162184,-1.631927,12.346220,-4.949164,-7.397056,-4.903936,-4.255390,-16.977406,-17.058134,-16.830158,-16.919756,6
943162347,-11.523867,-13.158131,-1.634264,12.340999,-4.944801,-7.396197,-4.900217,-4.251099,-16.975689,-17.055321,-16.827154,-16.915083,6
943164346,-11.526775,-13.161087,-1.634312,12.343931,-4.946232,-7.397699,-4.903030,-4.252052,-16.974974,-17.054415,-16.826677,-16.914368,6
943166344,-11.529303,-13.160467,-1.631165,12.344885,-4.949069,-7.395816,-4.895687,-4.242802,-16.969395,-17.048693,-16.821527,-16.907978,6
943168342,-11.540699,-13.167858,-1.627159,12.354279,-4.956770,-7.397509,-4.899120,-4.243231,-16.967821,-17.047739,-16.820860,-16.907501,6
943170340,-11.551476,-13.173246,-1.621771,12.362361,-4.964852,-7.397509,-4.899693,-4.239416,-16.964102,-17.044783,-16.816807,-16.904879,6
943172338,-11.558056,-13.177204,-1.619148,12.367630,-4.969454,-7.398176,-4.900646,-4.237556,-16.963339,-17.043304,-16.815519,-16.904926,6
943174336,-11.557770,-13.176250,-1.618481,12.367010,-4.969645,-7.397366,-4.898024,-4.237795,-16.964388,-17.043638,-16.815472,-16.905260,6
943176334,-11.555195,-13.175106,-1.619911,12.365150,-4.967642,-7.397509,-4.902792,-4.243326,-16.968775,-17.048407,-16.821194,-16.910744,6
943178332,-11.545324,-13.169861,-1.624537,12.357593,-4.960394,-7.397199,-4.904413,-4.246521,-16.971016,-17.051315,-16.823816,-16.912317,6
943180330,-11.548519,-13.173914,-1.625395,12.361217,-4.961562,-7.399654,-4.912710,-4.256105,-16.977262,-17.057610,-16.829062,-16.917658,6
943182328,-11.554050,-13.175583,-1.621532,12.364817,-4.966259,-7.398558,-4.916477,-4.257774,-16.978455,-17.059565,-16.830301,-16.920424,6
943184326,-11.561584,-13.178396,-1.616812,12.369990,-4.972386,-7.397604,-4.915667,-4.257250,-16.978455,-17.059517,-16.830492,-16.921234,6
943186324,-11.566448,-13.178730,-1.612282,12.372589,-4.977083,-7.395506,-4.913139,-4.255342,-16.975832,-17.056274,-16.827774,-16.919136,6
943188322,-11.576557,-13.183594,-1.607037,12.380075,-4.984760,-7.395315,-4.910803,-4.249954,-16.971779,-17.052269,-16.823959,-16.915607,6
943190320,-11.584425,-13.185072,-1.600647,12.384748,-4.991889,-7.392859,-4.905319,-4.242373,-16.967821,-17.047071,-16.819668,-16.911268,6
943192318,-11.586761,-13.183308,-1.596546,12.385035,-4.995108,-7.389927,-4.902220,-4.237700,-16.965723,-17.045259,-16.818523,-16.910028,6
943194316,-11.580276,-13.178778,-1.598501,12.379527,-4.990888,-7.388639,-4.896927,-4.234409,-16.965103,-17.045116,-16.817713,-16.909599,6
943196314,-11.565399,-13.170910,-1.605511,12.368155,-4.979944,-7.388210,-4.895735,-4.233551,-16.966915,-17.046070,-16.818810,-16.910028,6
943198312,-11.558485,-13.169146,-1.610661,12.363815,-4.973912,-7.389903,-4.904699,-4.244614,-16.971779,-17.050982,-16.823816,-16.916227,6
943200310,-11.556053,-13.171387,-1.615334,12.363720,-4.970360,-7.393360,-4.909277,-4.251432,-16.976786,-17.055798,-16.828156,-16.920853,6
943202308,-11.551952,-13.169956,-1.618004,12.360954,-4.966974,-7.393980,-4.909229,-4.251242,-16.977882,-17.056656,-16.829109,-16.921806,6
943204307,-11.550760,-13.168526,-1.617765,12.359643,-4.966497,-7.393146,-4.909086,-4.251671,-16.977024,-17.056227,-16.828489,-16.922092,6
943206303,-11.553860,-13.170576,-1.616716,12.362218,-4.968572,-7.393646,-4.910803,-4.249048,-16.973829,-17.053795,-16.826248,-16.919661,6
943208301,-11.559534,-13.174725,-1.615191,12.367129,-4.972172,-7.394958,-4.909658,-4.242802,-16.970301,-17.049980,-16.822529,-16.916084,6
943210299,-11.563969,-13.176870,-1.612902,12.370420,-4.975533,-7.394886,-4.907274,-4.238462,-16.965675,-17.046165,-16.817951,-16.911650,6
943212297,-11.568880,-13.177919,-1.609039,12.373400,-4.979920,-7.393479,-4.905939,-4.236221,-16.963720,-17.043877,-16.816568,-16.910219,6
943214299,-11.563826,-13.176346,-1.612520,12.370086,-4.975653,-7.394433,-4.902172,-4.235315,-16.963720,-17.043686,-16.816473,-16.909933,6
943216292,-11.552668,-13.170910,-1.618242,12.361789,-4.967213,-7.394576,-4.903173,-4.236317,-16.966391,-17.047453,-16.819000,-16.912508,6
943218290,-11.548090,-13.168430,-1.620340,12.358260,-4.963875,-7.394385,-4.909706,-4.244471,-16.971540,-17.052507,-16.824389,-16.918039,6
943220288,-11.549139,-13.172579,-1.623440,12.360859,-4.962850,-7.398009,-4.916048,-4.253054,-16.977358,-17.057800,-16.829824,-16.923523,6
943222287,-11.549425,-13.174677,-1.625252,12.362051,-4.962087,-7.399964,-4.917192,-4.256105,-16.979647,-17.059851,-16.831684,-16.924953,6
943224287,-11.532736,-13.158560,-1.625824,12.345648,-4.953456,-7.392192,-4.866076,-4.207134,-16.963196,-17.043209,-16.812992,-16.902018,6
943226285,-11.501312,-13.131571,-1.630259,12.316442,-4.935527,-7.380915,-4.834747,-4.172182,-16.951036,-17.031145,-16.800070,-16.876316,6
943228282,-11.505938,-13.134050,-1.628113,12.319994,-4.938912,-7.381082,-4.898643,-4.224205,-16.967249,-17.047024,-16.818380,-16.896582,6
943230280,-11.518908,-13.140440,-1.621532,12.329674,-4.948688,-7.380986,-4.901552,-4.224825,-16.964483,-17.043972,-16.815758,-16.896486,6
943232281,-11.524725,-13.141584,-1.616859,12.333155,-4.953933,-7.379222,-4.897833,-4.221344,-16.962957,-17.042494,-16.814709,-16.896486,6
943234276,-11.522913,-13.139057,-1.616144,12.330985,-4.953384,-7.377601,-4.893112,-4.218245,-16.962147,-17.041969,-16.813087,-16.895199,6
943236273,-11.519527,-13.134623,-1.615095,12.327075,-4.952216,-7.374859,-4.893494,-4.219151,-16.964769,-17.044878,-16.816664,-16.896248,6
943238271,-11.520815,-13.136435,-1.615620,12.328625,-4.952598,-7.376027,-4.898643,-4.226637,-16.969728,-17.049742,-16.821814,-16.902685,6
943240269,-11.525583,-13.139820,-1.614237,12.332702,-4.955673,-7.377028,-4.901218,-4.229784,-16.973352,-17.053652,-16.825390,-16.908121,6
943242267,-11.526728,-13.142681,-1.615953,12.334704,-4.955387,-7.379317,-4.904461,-4.234600,-16.975260,-17.055035,-16.827726,-16.911650,6
943244264,-11.532164,-13.145638,-1.613474,12.338901,-4.959345,-7.379556,-4.904318,-4.234362,-16.975260,-17.055511,-16.828394,-16.913748,6
943246262,-11.538792,-13.148880,-1.610088,12.343836,-4.964352,-7.379484,-4.902458,-4.232311,-16.972971,-17.052889,-16.825581,-16.912937,6
943248260,-11.546421,-13.152218,-1.605797,12.349319,-4.970312,-7.379007,-4.900742,-4.228497,-16.969252,-17.049694,-16.821337,-16.910362,6
943250258,-11.553717,-13.155890,-1.602173,12.354803,-4.975772,-7.379031,-4.897070,-4.221630,-16.963720,-17.044783,-16.816092,-16.906071,6
943252257,-11.557627,-13.160753,-1.603127,12.359190,-4.977250,-7.381940,-4.896498,-4.219246,-16.962242,-17.042732,-16.814804,-16.904402,6
943254255,-11.554050,-13.159084,-1.605034,12.356567,-4.974508,-7.382059,-4.890347,-4.214954,-16.962004,-17.041922,-16.813612,-16.902018,6
943256252,-11.548471,-13.154840,-1.606369,12.351656,-4.971051,-7.380605,-4.890299,-4.216385,-16.966295,-17.045259,-16.817522,-16.906214,6
943258250,-11.546946,-13.155985,-1.609039,12.351465,-4.968953,-7.382512,-4.896927,-4.225302,-16.971874,-17.051554,-16.824198,-16.913462,6
943260248,-11.548996,-13.157797,-1.608801,12.353396,-4.970098,-7.383299,-4.898643,-4.229164,-16.974258,-17.054987,-16.827440,-16.917086,6
943262246,-11.549616,-13.157225,-1.607609,12.353420,-4.971004,-7.382417,-4.901838,-4.231501,-16.975737,-17.055416,-16.828489,-16.918468,6
943264244,-11.552668,-13.159084,-1.606417,12.355876,-4.973125,-7.382751,-4.902554,-4.231691,-16.976213,-17.055798,-16.828156,-16.918278,6
943266242,-11.553192,-13.159513,-1.606321,12.356353,-4.973435,-7.382917,-4.901028,-4.231548,-16.972780,-17.052984,-16.825533,-16.916704,6
943268240,-11.557055,-13.163519,-1.606464,12.360287,-4.975295,-7.384992,-4.899931,-4.227018,-16.968584,-17.048550,-16.821957,-16.913605,6
943270237,-11.563492,-13.166046,-1.602554,12.364769,-4.980469,-7.384300,-4.896021,-4.221535,-16.964054,-17.043591,-16.817188,-16.909409,6
943272235,-11.567116,-13.168621,-1.601505,12.367868,-4.982805,-7.385063,-4.891872,-4.217005,-16.962099,-17.042351,-16.814947,-16.907597,6
943274233,-11.564493,-13.166046,-1.601553,12.365270,-4.981470,-7.383800,-4.888296,-4.214668,-16.962481,-17.042351,-16.814518,-16.906691,6
943276232,-11.559057,-13.166237,-1.607180,12.362647,-4.975939,-7.386708,-4.893255,-4.223108,-16.967678,-17.047834,-16.820192,-16.913557,6
943278229,-11.549282,-13.161469,-1.612186,12.355375,-4.968548,-7.386827,-4.891586,-4.222918,-16.970348,-17.050028,-16.821909,-16.914320,6
943280227,-11.547184,-13.161612,-1.614428,12.354398,-4.966378,-7.388020,-4.897594,-4.230356,-16.974306,-17.053699,-16.826248,-16.918707,6
943282224,-11.547852,-13.163900,-1.616049,12.355876,-4.965901,-7.389975,-4.898834,-4.232359,-16.975927,-17.055559,-16.827536,-16.919947,6
943284222,-11.551809,-13.166142,-1.614332,12.358975,-4.968739,-7.390237,-4.896688,-4.228926,-16.975641,-17.054749,-16.827154,-16.920042,6
943286220,-11.555672,-13.170195,-1.614523,12.362933,-4.970574,-7.392359,-4.896498,-4.224920,-16.973352,-17.052603,-16.825533,-16.918707,6
943288218,-11.559868,-13.174725,-1.614857,12.367296,-4.972506,-7.394791,-4.895306,-4.221487,-16.970348,-17.050457,-16.822338,-16.915894,6
943290216,-11.562204,-13.173628,-1.611423,12.367916,-4.975390,-7.392526,-4.892445,-4.216242,-16.964865,-17.045259,-16.817427,-16.910648,6
943292216,-11.566925,-13.176632,-1.609707,12.371778,-4.978609,-7.393169,-4.891157,-4.212809,-16.962671,-17.042685,-16.814375,-16.908979,6
943294216,-11.565685,-13.172770,-1.607084,12.369227,-4.979300,-7.389927,-4.888058,-4.210424,-16.961765,-17.041254,-16.812801,-16.907644,6
943296217,-11.562920,-13.172197,-1.609278,12.367558,-4.976821,-7.390738,-4.893208,-4.218388,-16.966820,-17.046452,-16.818666,-16.912937,6
943298216,-11.553335,-13.162231,-1.608896,12.357783,-4.972219,-7.385564,-4.884100,-4.213190,-16.965103,-17.045498,-16.818094,-16.910839,6
943300205,-11.552000,-13.162804,-1.610804,12.357402,-4.970598,-7.386804,-4.891586,-4.222822,-16.970921,-17.050123,-16.822910,-16.915512,6
943302203,-11.552382,-13.166094,-1.613712,12.359238,-4.969335,-7.389903,-4.898357,-4.229879,-16.974115,-17.053604,-16.825867,-16.918850,6
943304201,-11.553526,-13.168049,-1.614523,12.360787,-4.969501,-7.391286,-4.900599,-4.231548,-16.974401,-17.054510,-16.826487,-16.919565,6
943306199,-11.557674,-13.167572,-1.609898,12.362623,-4.973888,-7.388735,-4.897547,-4.228067,-16.971350,-17.051125,-16.824007,-16.916513,6
943308197,-11.565304,-13.169575,-1.604271,12.367439,-4.980516,-7.386923,-4.895782,-4.225159,-16.968155,-17.047453,-16.820192,-16.913939,6
943310195,-11.568737,-13.169432,-1.600695,12.369084,-4.984021,-7.385063,-4.894257,-4.220009,-16.963434,-17.043400,-16.815758,-16.909933,6
943312193,-11.566639,-13.169289,-1.602650,12.367964,-4.981995,-7.385969,-4.892969,-4.215574,-16.961527,-17.041779,-16.814041,-16.908026,6
943314191,-11.561012,-13.168859,-1.607847,12.364936,-4.976583,-7.388353,-4.893351,-4.216242,-16.961956,-17.042255,-16.813469,-16.907978,6
943316189,-11.553621,-13.165236,-1.611614,12.359428,-4.971004,-7.388425,-4.893255,-4.220676,-16.965389,-17.045355,-16.816807,-16.910696,6
943318186,-11.545849,-13.159084,-1.613235,12.352467,-4.966307,-7.386160,-4.893589,-4.223680,-16.968918,-17.048454,-16.821003,-16.913700,6
943320184,-11.545515,-13.161135,-1.615620,12.353325,-4.964948,-7.388377,-4.898977,-4.229689,-16.974258,-17.054415,-16.827202,-16.920519,6
943322182,-11.546707,-13.163042,-1.616335,12.354875,-4.965186,-7.389688,-4.900408,-4.232740,-16.975451,-17.055655,-16.828442,-16.922569,6
943324180,-11.551523,-13.167810,-1.616287,12.359667,-4.967618,-7.392049,-4.899549,-4.231691,-16.975641,-17.055559,-16.828299,-16.922569,6
943326181,-11.554432,-13.165951,-1.611519,12.360191,-4.971457,-7.388735,-4.886484,-4.218340,-16.968107,-17.047548,-16.819668,-16.913080,6
943328179,-11.529636,-13.139772,-1.610136,12.334704,-4.959750,-7.374954,-4.804707,-4.142189,-16.939068,-17.019224,-16.786671,-16.870832,6
943330177,-11.517811,-13.129330,-1.611519,12.323570,-4.953146,-7.370424,-4.850101,-4.180050,-16.950464,-17.030191,-16.800499,-16.879797,6
943332178,-11.524630,-13.135719,-1.611090,12.330174,-4.956770,-7.373405,-4.880714,-4.206848,-16.958094,-17.037678,-16.809988,-16.892147,6
943334175,-11.525917,-13.138199,-1.612282,12.332058,-4.956818,-7.375240,-4.879189,-4.207468,-16.957855,-17.038584,-16.810179,-16.893911,6
943336171,-11.520815,-13.136721,-1.615906,12.328768,-4.952455,-7.376313,-4.882288,-4.213905,-16.962862,-17.042971,-16.814661,-16.898775,6
943338169,-11.516762,-13.138103,-1.621342,12.327433,-4.947710,-7.379723,-4.889965,-4.221964,-16.967916,-17.047358,-16.820002,-16.902590,6
943340167,-11.523056,-13.144445,-1.621389,12.333751,-4.950833,-7.382917,-4.896545,-4.229641,-16.972542,-17.052937,-16.824770,-16.908741,6
943342165,-11.529064,-13.145256,-1.616192,12.337160,-4.956436,-7.380724,-4.897165,-4.231834,-16.973543,-17.053843,-16.825724,-16.911554,6
943344163,-11.534119,-13.147831,-1.613712,12.340975,-4.960203,-7.380772,-4.896021,-4.230642,-16.972637,-17.053413,-16.825533,-16.911888,6
943346161,-11.538649,-13.149452,-1.610804,12.344050,-4.963923,-7.380128,-4.895067,-4.228497,-16.970396,-17.051363,-16.823244,-16.910648,6
943348159,-11.546183,-13.154364,-1.608181,12.350273,-4.969001,-7.381272,-4.896593,-4.226065,-16.967487,-17.047691,-16.819763,-16.908550,6
943350157,-11.554575,-13.156366,-1.601791,12.355471,-4.976392,-7.379079,-4.893589,-4.221535,-16.963005,-17.042446,-16.815042,-16.904783,6
943352157,-11.557102,-13.161993,-1.604891,12.359548,-4.976106,-7.383442,-4.892540,-4.220915,-16.962481,-17.042923,-16.814423,-16.904402,6
943354153,-11.554956,-13.164139,-1.609182,12.359548,-4.972887,-7.386661,-4.892206,-4.221630,-16.963053,-17.043304,-16.814899,-16.904688,6
943356151,-11.551332,-13.168049,-1.616716,12.359691,-4.967308,-7.392383,-4.903316,-4.231167,-16.969538,-17.048788,-16.821671,-16.912270,6
943358150,-11.548233,-13.171768,-1.623535,12.360001,-4.962349,-7.397652,-4.908419,-4.238939,-16.973591,-17.052746,-16.825771,-16.916466,6
943360147,-11.547184,-13.170290,-1.623106,12.358737,-4.962039,-7.396698,-4.903364,-4.237509,-16.973782,-17.053223,-16.826057,-16.916323,6
943362145,-11.549711,-13.170624,-1.620913,12.360168,-4.964399,-7.395768,-4.904509,-4.238987,-16.974306,-17.053938,-16.826439,-16.916323,6
943364143,-11.559820,-13.178492,-1.618671,12.369156,-4.970574,-7.398582,-4.910231,-4.243946,-16.976070,-17.055941,-16.828251,-16.918325,6
943366141,-11.568737,-13.181162,-1.612425,12.374949,-4.978156,-7.396793,-4.908848,-4.240751,-16.973114,-17.053366,-16.825867,-16.916084,6
943368138,-11.579418,-13.184309,-1.604891,12.381864,-4.987264,-7.394600,-4.906702,-4.234886,-16.968441,-17.048979,-16.821289,-16.912127,6
943370136,-11.587715,-13.185692,-1.597977,12.386703,-4.994869,-7.391834,-4.903412,-4.230309,-16.963863,-17.043447,-16.816092,-16.907835,6
943372134,-11.591530,-13.188076,-1.596546,12.389803,-4.997492,-7.392311,-4.903269,-4.229593,-16.961956,-17.041826,-16.814280,-16.907167,6
943374138,-11.585760,-13.186216,-1.600456,12.385988,-4.992652,-7.393336,-4.901123,-4.227209,-16.961670,-17.041302,-16.815042,-16.907454,6
943376131,-11.572886,-13.181067,-1.608181,12.376976,-4.982352,-7.394624,-4.901743,-4.228592,-16.965055,-17.045116,-16.817617,-16.909504,6
943378128,-11.564350,-13.181210,-1.616859,12.372780,-4.973745,-7.399035,-4.910994,-4.238272,-16.970825,-17.050076,-16.822195,-16.912889,6
943380126,-11.566591,-13.187265,-1.620674,12.376928,-4.972959,-7.403970,-4.920673,-4.247618,-16.975927,-17.055702,-16.828108,-16.920137,6
943382124,-11.567402,-13.187122,-1.619720,12.377262,-4.973841,-7.403421,-4.920530,-4.246902,-16.977024,-17.056990,-16.829109,-16.921473,6
943384122,-11.572886,-13.191843,-1.618958,12.382364,-4.976964,-7.405400,-4.921055,-4.247713,-16.978168,-17.057180,-16.830015,-16.923237,6
943386120,-11.579084,-13.194561,-1.615477,12.386823,-4.981804,-7.405019,-4.920101,-4.241753,-16.975880,-17.055225,-16.827869,-16.921234,6
943388118,-11.585093,-13.195705,-1.610613,12.390399,-4.987240,-7.403159,-4.917192,-4.235268,-16.971540,-17.051506,-16.824102,-16.917038,6
943390116,-11.589670,-13.196325,-1.606655,12.392998,-4.991508,-7.401490,-4.916525,-4.230452,-16.966057,-17.046404,-16.818666,-16.911125,6
943392114,-11.590099,-13.195515,-1.605415,12.392807,-4.992342,-7.400465,-4.915810,-4.227829,-16.963530,-17.043543,-16.816235,-16.908836,6
943394112,-11.581707,-13.193178,-1.611471,12.387443,-4.985118,-7.402325,-4.913187,-4.226637,-16.963005,-17.043066,-16.814899,-16.907930,6
943396109,-11.567640,-13.186073,-1.618433,12.376857,-4.974604,-7.402253,-4.912806,-4.228067,-16.965723,-17.045259,-16.817999,-16.910791,6
943398107,-11.562681,-13.185263,-1.622581,12.373972,-4.970050,-7.403922,-4.920149,-4.237366,-16.971684,-17.051792,-16.824579,-16.917658,6
943400105,-11.563778,-13.186121,-1.622343,12.374949,-4.970717,-7.404232,-4.922581,-4.244375,-16.975689,-17.056513,-16.828585,-16.921949,6
943402103,-11.569309,-13.189459,-1.620150,12.379384,-4.974580,-7.404804,-4.925776,-4.249382,-16.977978,-17.058325,-16.830635,-16.924334,6
943404101,-11.575174,-13.196707,-1.621532,12.385941,-4.976821,-7.409120,-4.927206,-4.249668,-16.978979,-17.059326,-16.831541,-16.925097,6
943406099,-11.581182,-13.200140,-1.618958,12.390661,-4.981112,-7.409549,-4.925966,-4.247427,-16.976976,-17.056751,-16.829109,-16.923666,6
943408097,-11.587191,-13.202333,-1.615143,12.394762,-4.986024,-7.408738,-4.922009,-4.243660,-16.973352,-17.053175,-16.825056,-16.920137,6
943410095,-11.591148,-13.205242,-1.614094,12.398195,-4.988527,-7.409668,-4.919958,-4.239416,-16.968346,-17.048788,-16.821051,-16.915846,6
943412092,-11.590290,-13.206673,-1.616383,12.398481,-4.986954,-7.411528,-4.919481,-4.236746,-16.965437,-17.046309,-16.818571,-16.913652,6
943414090,-11.581612,-13.201857,-1.620245,12.391734,-4.980683,-7.411051,-4.917812,-4.237890,-16.965580,-17.045832,-16.818523,-16.913700,6
943416088,-11.575031,-13.200951,-1.625919,12.387991,-4.974556,-7.413435,-4.923153,-4.246140,-16.972923,-17.052269,-16.824913,-16.920090,6
943418086,-11.568785,-13.197517,-1.628733,12.383151,-4.970026,-7.413125,-4.926538,-4.252386,-16.977453,-17.057467,-16.830111,-16.925097,6
943420085,-11.562109,-13.191271,-1.629162,12.376690,-4.966474,-7.410216,-4.919624,-4.250240,-16.977739,-17.057991,-16.830969,-16.924620,6
943422082,-11.556959,-13.184261,-1.627302,12.370610,-4.964828,-7.405782,-4.918766,-4.247141,-16.976118,-17.056894,-16.829109,-16.923046,6
943424080,-11.563540,-13.188887,-1.625347,12.376213,-4.969096,-7.407117,-4.927349,-4.252195,-16.978836,-17.059135,-16.831207,-16.925526,6
943426078,-11.565828,-13.188744,-1.622915,12.377286,-4.971457,-7.405829,-4.923582,-4.250097,-16.976786,-17.056513,-16.828728,-16.923141,6
943428078,-11.569452,-13.187027,-1.617575,12.378240,-4.975939,-7.402301,-4.908371,-4.234171,-16.968918,-17.048931,-16.820478,-16.914320,6
943430077,-11.542749,-13.158798,-1.616049,12.350774,-4.963350,-7.387424,-4.827261,-4.156542,-16.938400,-17.018986,-16.786432,-16.872549,6
943432077,-11.526060,-13.145924,-1.619864,12.335992,-4.953098,-7.382894,-4.873991,-4.195976,-16.951513,-17.032433,-16.802597,-16.884518,6
943434074,-11.527300,-13.146353,-1.619053,12.336826,-4.954123,-7.382703,-4.904461,-4.225159,-16.962719,-17.042923,-16.814661,-16.897821,6
943436070,-11.524582,-13.146925,-1.622343,12.335753,-4.951119,-7.384634,-4.905605,-4.228449,-16.966438,-17.046404,-16.818476,-16.900730,6
943438068,-11.518383,-13.146591,-1.628208,12.332487,-4.945087,-7.387400,-4.912758,-4.239178,-16.971827,-17.051649,-16.824436,-16.905212,6
943440066,-11.518574,-13.152266,-1.633692,12.335420,-4.942441,-7.392979,-4.922199,-4.248428,-16.977978,-17.057848,-16.829729,-16.912985,6
943442064,-11.520576,-13.154316,-1.633739,12.337446,-4.943419,-7.394028,-4.922199,-4.251528,-16.979122,-17.059183,-16.831207,-16.916227,6
943444062,-11.528301,-13.159180,-1.630878,12.343740,-4.948711,-7.395029,-4.921722,-4.251194,-16.979456,-17.059708,-16.831923,-16.917562,6
943446060,-11.533546,-13.163376,-1.629829,12.348461,-4.951859,-7.396603,-4.922342,-4.249525,-16.977596,-17.057371,-16.829872,-16.917038,6
943448058,-11.539459,-13.168859,-1.629400,12.354159,-4.955029,-7.399130,-4.919577,-4.245663,-16.974688,-17.053986,-16.826296,-16.915607,6
943450055,-11.546469,-13.172197,-1.625729,12.359333,-4.960370,-7.398963,-4.916954,-4.241133,-16.970587,-17.050552,-16.823196,-16.912270,6
943452055,-11.550760,-13.173389,-1.622629,12.362075,-4.964066,-7.398009,-4.911804,-4.236507,-16.968298,-17.047882,-16.821241,-16.909790,6
943454052,-11.546707,-13.168621,-1.621914,12.357664,-4.962397,-7.395267,-4.906607,-4.234314,-16.968060,-17.046738,-16.819620,-16.908598,6
943456050,-11.538792,-13.164473,-1.625681,12.351632,-4.956555,-7.395077,-4.904270,-4.235458,-16.969681,-17.048836,-16.821194,-16.909885,6
943458048,-11.534882,-13.166094,-1.631212,12.350488,-4.951835,-7.398653,-4.914379,-4.246140,-16.975880,-17.054605,-16.827250,-16.916847,6
943460046,-11.535978,-13.169575,-1.633596,12.352777,-4.951191,-7.401586,-4.919481,-4.251385,-16.980124,-17.059326,-16.832018,-16.921520,6
943462044,-11.536407,-13.170052,-1.633644,12.353230,-4.951382,-7.401848,-4.921532,-4.252052,-16.981220,-17.060852,-16.833162,-16.923237,6
943464042,-11.541557,-13.172579,-1.631021,12.357068,-4.955268,-7.401800,-4.924059,-4.253721,-16.981697,-17.061090,-16.833830,-16.924477,6
943466040,-11.547279,-13.175535,-1.628256,12.361407,-4.959512,-7.401896,-4.920816,-4.250574,-16.979456,-17.058897,-16.831875,-16.922283,6
943468038,-11.555338,-13.179111,-1.623774,12.367225,-4.965782,-7.401443,-4.916811,-4.244661,-16.974974,-17.055130,-16.826868,-16.918278,6
943470036,-11.562157,-13.179159,-1.617002,12.370658,-4.972577,-7.398081,-4.914331,-4.239607,-16.970205,-17.049646,-16.822243,-16.913605,6
943472034,-11.562729,-13.177586,-1.614857,12.370157,-4.973936,-7.396221,-4.911137,-4.236269,-16.968203,-17.046976,-16.819715,-16.912079,6
943474032,-11.559200,-13.175058,-1.615858,12.367129,-4.971671,-7.395458,-4.907036,-4.234123,-16.966677,-17.046261,-16.819143,-16.910982,6
943476030,-11.553144,-13.175058,-1.621914,12.364101,-4.965615,-7.398486,-4.909992,-4.239798,-16.970444,-17.050123,-16.822529,-16.914415,6
943478028,-11.541986,-13.166618,-1.624632,12.354302,-4.958677,-7.395625,-4.906654,-4.237032,-16.971874,-17.051315,-16.822958,-16.913557,6
943480026,-11.545038,-13.172674,-1.627636,12.358856,-4.958701,-7.400155,-4.916382,-4.247522,-16.978359,-17.057514,-16.829729,-16.920328,6
943482023,-11.548853,-13.179398,-1.630545,12.364125,-4.959154,-7.404971,-4.922819,-4.255724,-16.982365,-17.061853,-16.833830,-16.924477,6
943484028,-11.551237,-13.182306,-1.631069,12.366772,-4.960084,-7.406688,-4.923010,-4.255390,-16.982412,-17.062140,-16.835308,-16.925955,6
943486019,-11.549520,-13.177443,-1.627922,12.363482,-4.960799,-7.402682,-4.913282,-4.245234,-16.976547,-17.056417,-16.828394,-16.918468,6
943488017,-11.553717,-13.180065,-1.626348,12.366891,-4.963684,-7.403207,-4.913044,-4.241180,-16.971922,-17.051649,-16.823387,-16.913176,6
943490016,-11.566257,-13.186359,-1.620102,12.376308,-4.973078,-7.403231,-4.918051,-4.241085,-16.968775,-17.049170,-16.821098,-16.911793,6
943492014,-11.578131,-13.191986,-1.613855,12.385058,-4.982138,-7.402921,-4.919624,-4.240704,-16.967630,-17.047358,-16.819668,-16.910362,6
943494012,-11.580753,-13.190651,-1.609898,12.385702,-4.985428,-7.400274,-4.916191,-4.237509,-16.966963,-17.047262,-16.818476,-16.909456,6
943496010,-11.570406,-13.186502,-1.616096,12.378454,-4.977155,-7.401299,-4.915285,-4.238081,-16.969490,-17.049170,-16.821241,-16.912079,6
943498008,-11.558390,-13.181353,-1.622963,12.369871,-4.967713,-7.402158,-4.919434,-4.244137,-16.973305,-17.052507,-16.825056,-16.914940,6
943500006,-11.560488,-13.186264,-1.625776,12.373376,-4.967356,-7.406020,-4.927444,-4.253387,-16.978455,-17.057753,-16.830254,-16.921091,6
943502003,-11.564398,-13.189983,-1.625586,12.377191,-4.969406,-7.407784,-4.929209,-4.258108,-16.980171,-17.059898,-16.833019,-16.924667,6
943504002,-11.570168,-13.194370,-1.624203,12.382269,-4.972982,-7.409286,-4.928780,-4.257965,-16.980219,-17.060614,-16.833258,-16.925526,6
943505999,-11.575079,-13.194084,-1.619005,12.384582,-4.978037,-7.406545,-4.924965,-4.254866,-16.978312,-17.057943,-16.830587,-16.922474,6
943507997,-11.582041,-13.196039,-1.613998,12.389040,-4.984021,-7.405019,-4.918909,-4.247522,-16.973782,-17.054081,-16.826534,-16.918802,6
943509995,-11.587000,-13.196325,-1.609325,12.391663,-4.988837,-7.402825,-4.915094,-4.240227,-16.968346,-17.048264,-16.820955,-16.913986,6
943511993,-11.590672,-13.197947,-1.607275,12.394309,-4.991698,-7.402611,-4.913139,-4.237652,-16.966772,-17.046642,-16.819191,-16.912031,6
943513992,-11.584806,-13.194370,-1.609564,12.389588,-4.987621,-7.401967,-4.906702,-4.232931,-16.965437,-17.045546,-16.818142,-16.910648,6
943515989,-11.576080,-13.187218,-1.611137,12.381649,-4.982471,-7.399178,-4.910421,-4.234123,-16.969776,-17.049170,-16.820908,-16.914129,6
943517987,-11.571455,-13.188505,-1.617050,12.379980,-4.977202,-7.402778,-4.922676,-4.242897,-16.976070,-17.055941,-16.827774,-16.920710,6
943519985,-11.570358,-13.190937,-1.620579,12.380648,-4.974890,-7.405758,-4.927254,-4.251194,-16.979170,-17.058563,-16.831303,-16.923761,6
943521983,-11.566162,-13.189650,-1.623487,12.377906,-4.971337,-7.406569,-4.928446,-4.254866,-16.980028,-17.060232,-16.832590,-16.925716,6
943523981,-11.567259,-13.191843,-1.624584,12.379551,-4.971337,-7.408214,-4.930449,-4.255438,-16.980600,-17.060804,-16.833162,-16.926861,6
943525979,-11.570454,-13.192749,-1.622295,12.381601,-4.974079,-7.407522,-4.929829,-4.252481,-16.978312,-17.058182,-16.830778,-16.924477,6
943527977,-11.571789,-13.193274,-1.621485,12.382531,-4.975152,-7.407379,-4.925871,-4.245853,-16.974401,-17.054510,-16.826487,-16.920328,6
943529976,-11.571169,-13.193226,-1.622057,12.382197,-4.974556,-7.407641,-4.921436,-4.240036,-16.968393,-17.048454,-16.820860,-16.915131,6
943531978,-11.554050,-13.175344,-1.621294,12.364697,-4.966378,-7.398319,-4.869986,-4.192400,-16.949034,-17.029238,-16.799068,-16.889143,6
943533974,-11.515188,-13.145018,-1.629829,12.330103,-4.942679,-7.387424,-4.833031,-4.158449,-16.939211,-17.018986,-16.786623,-16.864157,6
943535972,-11.512995,-13.146973,-1.633978,12.329984,-4.939508,-7.390475,-4.905701,-4.225111,-16.967344,-17.046547,-16.818285,-16.895580,6
943537970,-11.513805,-13.145542,-1.631737,12.329674,-4.941034,-7.388639,-4.910326,-4.229736,-16.972399,-17.051554,-16.823292,-16.901588,6
943539968,-11.513996,-13.142633,-1.628637,12.328315,-4.942679,-7.385635,-4.910040,-4.228640,-16.974115,-17.053556,-16.824818,-16.901588,6
943541966,-11.517620,-13.146067,-1.628447,12.331843,-4.944587,-7.387257,-4.913664,-4.235554,-16.976452,-17.056513,-16.828632,-16.907406,6
943543964,-11.523724,-13.152027,-1.628304,12.337875,-4.947710,-7.390165,-4.913998,-4.236698,-16.976690,-17.057180,-16.829634,-16.909599,6
943545962,-11.529541,-13.159323,-1.629782,12.344432,-4.949880,-7.394552,-4.912901,-4.235601,-16.975594,-17.055941,-16.827917,-16.910982,6
943547960,-11.536026,-13.165045,-1.629019,12.350535,-4.953504,-7.397032,-4.911709,-4.233074,-16.973686,-17.053795,-16.826010,-16.910553,6
943549957,-11.541939,-13.166857,-1.624918,12.354398,-4.958510,-7.395887,-4.908848,-4.228640,-16.968536,-17.049313,-16.820860,-16.907072,6
943551956,-11.546183,-13.170671,-1.624489,12.358427,-4.960847,-7.397580,-4.907131,-4.225206,-16.966295,-17.046022,-16.817713,-16.905499,6
943553953,-11.544037,-13.170576,-1.626539,12.357306,-4.958749,-7.398558,-4.904842,-4.222775,-16.963720,-17.043400,-16.815233,-16.902256,6
943555951,-11.535883,-13.165331,-1.629448,12.350607,-4.953218,-7.397389,-4.907179,-4.227448,-16.967964,-17.047501,-16.819763,-16.905403,6
943557949,-11.533451,-13.165283,-1.631832,12.349367,-4.950809,-7.398558,-4.915333,-4.238558,-16.974545,-17.054653,-16.826487,-16.912651,6
943559947,-11.534166,-13.168859,-1.634693,12.351513,-4.949737,-7.401776,-4.919910,-4.244518,-16.978550,-17.058420,-16.830969,-16.917896,6
943561945,-11.534405,-13.172674,-1.638269,12.353539,-4.948068,-7.405472,-4.922581,-4.246473,-16.980219,-17.059898,-16.832781,-16.920948,6
943563942,-11.542034,-13.178349,-1.636314,12.360191,-4.952860,-7.407331,-4.924250,-4.248095,-16.980934,-17.060852,-16.833878,-16.923141,6
943565940,-11.549282,-13.181162,-1.631880,12.365222,-4.958701,-7.406521,-4.923391,-4.245806,-16.978550,-17.058945,-16.831255,-16.921473,6
943567938,-11.555767,-13.185596,-1.629829,12.370682,-4.962969,-7.407713,-4.921293,-4.241991,-16.975355,-17.055464,-16.828156,-16.918612,6
943569936,-11.563683,-13.187695,-1.624012,12.375689,-4.969835,-7.405853,-4.918957,-4.238415,-16.970301,-17.050028,-16.823769,-16.914225,6
943571935,-11.569118,-13.189268,-1.620150,12.379193,-4.974484,-7.404709,-4.915333,-4.236937,-16.968060,-17.047596,-16.821241,-16.912031,6
943573932,-11.563301,-13.186026,-1.622725,12.374663,-4.970288,-7.404375,-4.911947,-4.234648,-16.967344,-17.047071,-16.820145,-16.911459,6
943575930,-11.551094,-13.178158,-1.627064,12.364626,-4.962015,-7.402611,-4.911041,-4.236031,-16.968822,-17.049217,-16.822338,-16.912985,6
943577927,-11.549187,-13.177347,-1.628160,12.363267,-4.960513,-7.402754,-4.918146,-4.245996,-16.975355,-17.055225,-16.828012,-16.918945,6
943579925,-11.551714,-13.181067,-1.629353,12.366390,-4.961181,-7.405210,-4.921722,-4.252052,-16.981220,-17.060232,-16.833258,-16.924715,6
943581923,-11.553097,-13.181734,-1.628637,12.367415,-4.962230,-7.405186,-4.924011,-4.254913,-16.982269,-17.061615,-16.834545,-16.926146,6
943583921,-11.555719,-13.183451,-1.627731,12.369585,-4.963994,-7.405591,-4.923391,-4.255104,-16.982365,-17.061520,-16.834450,-16.926432,6
943585919,-11.558342,-13.183641,-1.625299,12.370992,-4.966521,-7.404470,-4.918766,-4.250479,-16.978216,-17.057943,-16.830397,-16.923380,6
943587916,-11.563301,-13.185406,-1.622105,12.374353,-4.970598,-7.403755,-4.914331,-4.244280,-16.974306,-17.054462,-16.826773,-16.919279,6
943589914,-11.566401,-13.185596,-1.619196,12.375998,-4.973602,-7.402396,-4.912090,-4.239559,-16.970015,-17.049837,-16.822386,-16.915560,6
943591912,-11.567307,-13.185787,-1.618481,12.376547,-4.974413,-7.402134,-4.913664,-4.237938,-16.967010,-17.048168,-16.820383,-16.913462,6
943593910,-11.559677,-13.181257,-1.621580,12.370467,-4.969049,-7.401419,-4.910898,-4.237700,-16.965914,-17.046547,-16.819191,-16.911650,6
943595908,-11.549807,-13.174772,-1.624966,12.362289,-4.962420,-7.399869,-4.912233,-4.239559,-16.969919,-17.049408,-16.820860,-16.913986,6
943597906,-11.542845,-13.171005,-1.628160,12.356925,-4.957342,-7.399583,-4.918528,-4.245090,-16.974640,-17.054653,-16.826200,-16.919041,6
943599903,-11.544514,-13.174677,-1.630163,12.359595,-4.957175,-7.402420,-4.923487,-4.252577,-16.979074,-17.058563,-16.831732,-16.924095,6
943601901,-11.545563,-13.174009,-1.628447,12.359786,-4.958558,-7.401228,-4.921865,-4.251814,-16.980124,-17.059231,-16.832733,-16.925669,6
943603899,-11.548138,-13.177586,-1.629448,12.362862,-4.959345,-7.403517,-4.920959,-4.250813,-16.980505,-17.059135,-16.832447,-16.926336,6
943605897,-11.549091,-13.178444,-1.629353,12.363768,-4.959869,-7.403898,-4.920626,-4.247952,-16.977930,-17.057514,-16.830444,-16.924715,6
943607895,-11.558008,-13.183594,-1.625586,12.370801,-4.966211,-7.404590,-4.919004,-4.243898,-16.974974,-17.054749,-16.827488,-16.921520,6
943609893,-11.568642,-13.189268,-1.620626,12.378955,-4.974008,-7.404947,-4.914331,-4.238701,-16.969728,-17.049599,-16.822529,-16.916466,6
943611891,-11.571455,-13.190031,-1.618576,12.380743,-4.976439,-7.404304,-4.913616,-4.237509,-16.968107,-17.048454,-16.821957,-16.915178,6
943613889,-11.567879,-13.187551,-1.619673,12.377715,-4.974103,-7.403612,-4.910946,-4.236078,-16.968203,-17.047930,-16.820288,-16.914606,6
943615887,-11.564255,-13.188410,-1.624155,12.376332,-4.970050,-7.406282,-4.914761,-4.242277,-16.972399,-17.052555,-16.825104,-16.919756,6
943617885,-11.552858,-13.179255,-1.626396,12.366056,-4.963231,-7.402825,-4.907084,-4.240084,-16.972351,-17.051744,-16.824055,-16.917562,6
943619883,-11.545992,-13.171434,-1.625443,12.358713,-4.960275,-7.398438,-4.905748,-4.241991,-16.973829,-17.052746,-16.825438,-16.919088,6
943621881,-11.553383,-13.177109,-1.623726,12.365246,-4.964828,-7.400417,-4.913902,-4.249763,-16.978073,-17.057180,-16.829777,-16.923666,6
943623879,-11.561203,-13.182449,-1.621246,12.371826,-4.969978,-7.401848,-4.915237,-4.249859,-16.978312,-17.059040,-16.830969,-16.924715,6
943625877,-11.568832,-13.185167,-1.616335,12.377000,-4.976249,-7.400751,-4.912710,-4.248333,-16.977262,-17.057037,-16.829491,-16.923189,6
943627875,-11.574364,-13.187838,-1.613474,12.381101,-4.980445,-7.400656,-4.909754,-4.243183,-16.973543,-17.053223,-16.826057,-16.919327,6
943629873,-11.575460,-13.187027,-1.611567,12.381244,-4.981947,-7.399297,-4.904652,-4.238605,-16.968155,-17.047644,-16.820383,-16.914654,6
943631872,-11.575937,-13.186407,-1.610470,12.381172,-4.982734,-7.398438,-4.900503,-4.235792,-16.965389,-17.044973,-16.817379,-16.912079,6
943633872,-11.552811,-13.163090,-1.610279,12.357950,-4.971266,-7.386684,-4.845715,-4.187012,-16.948032,-17.027950,-16.795778,-16.886759,6
943635870,-11.511612,-13.133478,-1.621866,12.322545,-4.944873,-7.377672,-4.815388,-4.161835,-16.942930,-17.023277,-16.791534,-16.871881,6
943637868,-11.501980,-13.129663,-1.627684,12.315822,-4.937148,-7.378674,-4.878807,-4.222965,-16.967058,-17.046499,-16.819334,-16.899681,6
943639866,-11.500072,-13.130951,-1.630878,12.315512,-4.934597,-7.380915,-4.884577,-4.231548,-16.971540,-17.051268,-16.823149,-16.902113,6
943641864,-11.507797,-13.139296,-1.631498,12.323546,-4.938149,-7.385397,-4.895830,-4.239845,-16.976690,-17.055798,-16.827822,-16.908026,6
943643862,-11.514473,-13.144445,-1.629972,12.329459,-4.942250,-7.387209,-4.898977,-4.240465,-16.978216,-17.057753,-16.830540,-16.912413,6
943645860,-11.521482,-13.148689,-1.627207,12.335086,-4.947138,-7.387948,-4.900694,-4.238939,-16.976118,-17.056036,-16.828966,-16.912413,6
943647858,-11.532259,-13.155746,-1.623487,12.344003,-4.954386,-7.389617,-4.901791,-4.236412,-16.973734,-17.053652,-16.825581,-16.910648,6
943649856,-11.542511,-13.161850,-1.619339,12.352180,-4.961586,-7.390594,-4.901123,-4.230070,-16.968775,-17.048836,-16.820383,-16.906548,6
943651856,-11.547184,-13.165379,-1.618195,12.356281,-4.964495,-7.391787,-4.897022,-4.226494,-16.965246,-17.045307,-16.817999,-16.905355,6
943653852,-11.549520,-13.167095,-1.617575,12.358308,-4.965973,-7.392335,-4.897213,-4.227591,-16.965580,-17.045832,-16.817951,-16.906214,6
943655850,-11.549568,-13.171625,-1.622057,12.360597,-4.963756,-7.396841,-4.902172,-4.234123,-16.970825,-17.050838,-16.822958,-16.912079,6
943657848,-11.546707,-13.173580,-1.626873,12.360144,-4.959917,-7.400227,-4.906797,-4.238558,-16.975021,-17.054939,-16.827106,-16.916847,6
943659846,-11.545229,-13.172102,-1.626873,12.358665,-4.959178,-7.399487,-4.908991,-4.242229,-16.978216,-17.057943,-16.830301,-16.921091,6
943661844,-11.539412,-13.168430,-1.629019,12.353921,-4.955196,-7.398725,-4.905844,-4.240513,-16.978598,-17.058134,-16.830349,-16.920233,6
943663842,-11.537504,-13.169193,-1.631689,12.353349,-4.952908,-7.400441,-4.907751,-4.239941,-16.979265,-17.059994,-16.831350,-16.921282,6
943665840,-11.544895,-13.172197,-1.627302,12.358546,-4.958797,-7.399750,-4.909468,-4.237795,-16.977310,-17.058182,-16.830158,-16.920757,6
943667839,-11.558485,-13.179016,-1.620531,12.368751,-4.968977,-7.399774,-4.910183,-4.234552,-16.974020,-17.054033,-16.826773,-16.918325,6
943669836,-11.559725,-13.178539,-1.618814,12.369132,-4.970455,-7.398677,-4.903746,-4.224348,-16.966200,-17.046070,-16.817379,-16.908455,6
943671835,-11.559486,-13.180208,-1.620722,12.369847,-4.969382,-7.400465,-4.904699,-4.224968,-16.963482,-17.043447,-16.815805,-16.905975,6
943673832,-11.559439,-13.182259,-1.622820,12.370849,-4.968309,-7.402539,-4.905176,-4.227734,-16.964245,-17.043924,-16.816711,-16.907644,6
943675830,-11.557055,-13.183880,-1.626825,12.370467,-4.965115,-7.405353,-4.910088,-4.236078,-16.970921,-17.050505,-16.823387,-16.914415,6
943677828,-11.550999,-13.182116,-1.631117,12.366557,-4.959941,-7.406616,-4.912138,-4.242325,-16.976595,-17.055845,-16.828680,-16.919994,6
943679825,-11.544085,-13.179731,-1.635647,12.361908,-4.954219,-7.407689,-4.909229,-4.240465,-16.977501,-17.057323,-16.829300,-16.920233,6
943681823,-11.542463,-13.179827,-1.637363,12.361145,-4.952550,-7.408595,-4.917383,-4.244852,-16.979361,-17.059183,-16.831398,-16.921663,6
943683821,-11.551905,-13.184643,-1.632738,12.368274,-4.959583,-7.408690,-4.920816,-4.248095,-16.980076,-17.060137,-16.832495,-16.923523,6
943685819,-11.562872,-13.186884,-1.624012,12.374878,-4.969430,-7.405448,-4.918957,-4.244137,-16.976690,-17.057753,-16.829681,-16.921711,6
943687817,-11.575270,-13.191843,-1.616573,12.383556,-4.979348,-7.404208,-4.918480,-4.241228,-16.974163,-17.054272,-16.826725,-16.919327,6
943689815,-11.580133,-13.194275,-1.614141,12.387204,-4.982996,-7.404208,-4.917336,-4.237175,-16.969872,-17.048979,-16.821527,-16.914606,6
943691814,-11.579943,-13.197279,-1.617336,12.388611,-4.981303,-7.407308,-4.915333,-4.234505,-16.967154,-17.047119,-16.820097,-16.912556,6
943693811,-11.575270,-13.193417,-1.618147,12.384343,-4.978561,-7.405782,-4.910374,-4.231882,-16.965914,-17.046404,-16.818810,-16.911840,6
943695809,-11.572456,-13.193560,-1.621103,12.383008,-4.975677,-7.407331,-4.916525,-4.239655,-16.970921,-17.051315,-16.823387,-16.916513,6
943697807,-11.567593,-13.190031,-1.622438,12.378812,-4.972577,-7.406235,-4.917526,-4.247284,-16.975594,-17.055178,-16.828060,-16.921282,6
943699805,-11.566257,-13.190842,-1.624584,12.378550,-4.970837,-7.407713,-4.919243,-4.251575,-16.979456,-17.059135,-16.831398,-16.924524,6
943701803,-11.563396,-13.188219,-1.624823,12.375808,-4.969287,-7.406521,-4.919720,-4.252768,-16.980457,-17.060089,-16.832638,-16.925859,6
943703801,-11.563587,-13.190079,-1.626492,12.376833,-4.968548,-7.408285,-4.920053,-4.253006,-16.980314,-17.060089,-16.832066,-16.926956,6
943705799,-11.565161,-13.189411,-1.624250,12.377286,-4.970455,-7.406831,-4.915857,-4.246759,-16.977024,-17.057133,-16.829109,-16.923475,6
943707797,-11.565161,-13.182163,-1.617002,12.373662,-4.974079,-7.399583,-4.902411,-4.233456,-16.970348,-17.050409,-16.822958,-16.916323,6
943709795,-11.570311,-13.184118,-1.613808,12.377214,-4.978251,-7.398963,-4.903984,-4.231453,-16.967726,-17.047596,-16.819668,-16.913652,6
943711793,-11.574697,-13.186789,-1.612091,12.380743,-4.981303,-7.399440,-4.906178,-4.229116,-16.966057,-17.046213,-16.818380,-16.911936,6
943713791,-11.572409,-13.183880,-1.611471,12.378144,-4.980469,-7.397676,-4.904413,-4.226398,-16.964293,-17.044735,-16.816521,-16.909838,6
943715789,-11.564112,-13.179255,-1.615143,12.371683,-4.974484,-7.397199,-4.904079,-4.228735,-16.965961,-17.045355,-16.818047,-16.911125,6
943717787,-11.559582,-13.178205,-1.618624,12.368894,-4.970479,-7.398415,-4.910040,-4.237032,-16.972065,-17.050028,-16.823101,-16.916800,6
943719785,-11.561966,-13.182402,-1.620436,12.372184,-4.970765,-7.401419,-4.915333,-4.244137,-16.976643,-17.056179,-16.829014,-16.922474,6
943721782,-11.565590,-13.181543,-1.615953,12.373567,-4.974818,-7.398748,-4.914141,-4.245043,-16.977358,-17.057848,-16.830778,-16.924095,6
943723780,-11.567163,-13.182831,-1.615667,12.374997,-4.975748,-7.399249,-4.913759,-4.244137,-16.977739,-17.058039,-16.831493,-16.924381,6
943725778,-11.570406,-13.184881,-1.614475,12.377644,-4.977965,-7.399678,-4.913902,-4.241657,-16.975832,-17.056274,-16.828632,-16.922474,6
943727776,-11.574411,-13.188076,-1.613665,12.381244,-4.980373,-7.400870,-4.914474,-4.236841,-16.972542,-17.052794,-16.824293,-16.919613,6
943729774,-11.573601,-13.188267,-1.614666,12.380934,-4.979467,-7.401466,-4.915524,-4.232168,-16.967440,-17.047739,-16.820049,-16.914463,6
943731773,-11.571360,-13.190031,-1.618671,12.380695,-4.976344,-7.404351,-4.917955,-4.233265,-16.965628,-17.046309,-16.818571,-16.913033,6
943733770,-11.565256,-13.185501,-1.620245,12.375379,-4.972506,-7.402873,-4.913807,-4.227829,-16.964006,-17.045259,-16.816616,-16.910887,6
943735771,-11.554766,-13.179541,-1.624775,12.367153,-4.964995,-7.402158,-4.904222,-4.221296,-16.964245,-17.044544,-16.816854,-16.910458,6
943737769,-11.513519,-13.146353,-1.632833,12.329936,-4.940343,-7.389593,-4.828310,-4.153109,-16.942930,-17.023420,-16.791964,-16.877699,6
943739767,-11.489868,-13.130522,-1.640654,12.310195,-4.924607,-7.385588,-4.875851,-4.198647,-16.963148,-17.042971,-16.813326,-16.893053,6
943741765,-11.499596,-13.137960,-1.638365,12.318778,-4.930615,-7.388163,-4.910421,-4.233932,-16.976929,-17.056084,-16.829062,-16.909933,6
943743763,-11.509562,-13.145781,-1.636219,12.327671,-4.936671,-7.391000,-4.913855,-4.238176,-16.979170,-17.058754,-16.831255,-16.913557,6
943745762,-11.513901,-13.148451,-1.634550,12.331176,-4.939675,-7.391500,-4.910564,-4.235840,-16.975975,-17.055321,-16.827774,-16.911602,6
943747759,-11.517620,-13.145971,-1.628351,12.331796,-4.944634,-7.387161,-4.899740,-4.223299,-16.966534,-17.046738,-16.818905,-16.902018,6
943749757,-11.528826,-13.151836,-1.623011,12.340331,-4.952908,-7.387424,-4.903603,-4.222441,-16.964674,-17.044306,-16.816521,-16.899681,6
943751756,-11.535025,-13.155174,-1.620150,12.345099,-4.957438,-7.387662,-4.903793,-4.222202,-16.963911,-17.043209,-16.815233,-16.899920,6
943753753,-11.535358,-13.153791,-1.618433,12.344575,-4.958463,-7.386112,-4.900885,-4.221439,-16.962957,-17.042255,-16.814518,-16.900253,6
943755751,-11.531925,-13.150215,-1.618290,12.341070,-4.956818,-7.384253,-4.901218,-4.224777,-16.965675,-17.044258,-16.817093,-16.902161,6
943757749,-11.528492,-13.148832,-1.620340,12.338662,-4.954076,-7.384586,-4.906559,-4.231739,-16.970587,-17.049599,-16.822529,-16.907263,6
943759747,-11.530924,-13.153172,-1.622248,12.342048,-4.954338,-7.387710,-4.910374,-4.237509,-16.976166,-17.054749,-16.828060,-16.913509,6
943761745,-11.531401,-13.156319,-1.624918,12.343860,-4.953241,-7.390618,-4.913902,-4.242277,-16.977882,-17.057371,-16.829586,-16.916561,6
943763743,-11.536884,-13.160753,-1.623869,12.348819,-4.956508,-7.392311,-4.915333,-4.244614,-16.978884,-17.058516,-16.830301,-16.919041,6
943765741,-11.542654,-13.161516,-1.618862,12.352085,-4.961896,-7.390189,-4.910278,-4.238796,-16.975975,-17.056370,-16.827869,-16.916847,6
943767739,-11.548328,-13.162327,-1.613998,12.355328,-4.967165,-7.388163,-4.908991,-4.232502,-16.972828,-17.052364,-16.824865,-16.913700,6
943769737,-11.555624,-13.165665,-1.610041,12.360644,-4.972792,-7.387853,-4.908037,-4.228401,-16.967964,-17.047310,-16.820049,-16.909409,6
943771736,-11.562395,-13.169527,-1.607132,12.365961,-4.977632,-7.388330,-4.907227,-4.226160,-16.965723,-17.045307,-16.817760,-16.908550,6
943773734,-11.557817,-13.167715,-1.609898,12.362766,-4.973960,-7.388806,-4.903793,-4.223633,-16.964912,-17.044449,-16.817427,-16.907978,6
943775732,-11.550474,-13.166809,-1.616335,12.358642,-4.967070,-7.391572,-4.909801,-4.230547,-16.970491,-17.049789,-16.822672,-16.913748,6
943777729,-11.540127,-13.162041,-1.621914,12.351084,-4.959106,-7.391977,-4.908848,-4.232931,-16.972589,-17.052412,-16.824341,-16.915512,6
943779727,-11.534595,-13.158417,-1.623821,12.346506,-4.955387,-7.391119,-4.909468,-4.234838,-16.974068,-17.053795,-16.826057,-16.915941,6
943781725,-11.534834,-13.158607,-1.623774,12.346721,-4.955530,-7.391191,-4.913807,-4.239655,-16.975927,-17.055845,-16.828632,-16.919327,6
943783723,-11.541176,-13.162327,-1.621151,12.351751,-4.960012,-7.391739,-4.913664,-4.241085,-16.976929,-17.057085,-16.830301,-16.920900,6
943785721,-11.549044,-13.164854,-1.615810,12.356949,-4.966617,-7.390332,-4.912376,-4.238701,-16.974735,-17.054987,-16.827536,-16.919184,6
943787719,-11.556292,-13.168144,-1.611853,12.362218,-4.972219,-7.389998,-4.910469,-4.233646,-16.971827,-17.051029,-16.823578,-16.916704,6
943789717,-11.564255,-13.172102,-1.607847,12.368178,-4.978204,-7.389975,-4.908180,-4.230022,-16.966724,-17.046595,-16.818047,-16.911936,6
943791715,-11.567783,-13.176489,-1.608706,12.372136,-4.979539,-7.392597,-4.905796,-4.229641,-16.964817,-17.044544,-16.816378,-16.909790,6
943793713,-11.563110,-13.172054,-1.608944,12.367582,-4.977083,-7.390499,-4.900408,-4.227257,-16.963005,-17.043734,-16.815138,-16.908550,6
943795711,-11.554050,-13.167429,-1.613379,12.360740,-4.970336,-7.390404,-4.898548,-4.227352,-16.965580,-17.045498,-16.817284,-16.909027,6
943797710,-11.543322,-13.160753,-1.617432,12.352037,-4.962945,-7.389092,-4.899645,-4.228640,-16.967916,-17.048073,-16.820097,-16.911077,6
943799708,-11.545229,-13.163805,-1.618576,12.354517,-4.963326,-7.391191,-4.909325,-4.239511,-16.973209,-17.054319,-16.827154,-16.918755,6
943801706,-11.547375,-13.167715,-1.620340,12.357545,-4.963517,-7.394028,-4.911995,-4.244518,-16.975880,-17.056465,-16.829062,-16.921329,6
943803703,-11.551666,-13.172245,-1.620579,12.361956,-4.965544,-7.396412,-4.916096,-4.247665,-16.977978,-17.057705,-16.830349,-16.923285,6
943805701,-11.557055,-13.172102,-1.615047,12.364578,-4.971004,-7.393575,-4.914999,-4.244661,-16.976404,-17.056704,-16.829157,-16.921377,6
943807699,-11.564541,-13.174582,-1.610041,12.369561,-4.977250,-7.392311,-4.911566,-4.239035,-16.972685,-17.053413,-16.825819,-16.919327,6
943809697,-11.570501,-13.178205,-1.607704,12.374353,-4.981399,-7.392955,-4.909372,-4.233599,-16.967916,-17.048311,-16.820526,-16.914892,6
943811696,-11.575508,-13.177443,-1.601934,12.376475,-4.986787,-7.389688,-4.906368,-4.227877,-16.964388,-17.044067,-16.816330,-16.910648,6
943813693,-11.571836,-13.173676,-1.601839,12.372756,-4.984999,-7.387757,-4.902935,-4.225063,-16.962910,-17.042971,-16.815710,-16.909409,6
943815691,-11.563158,-13.170099,-1.606941,12.366629,-4.978108,-7.388520,-4.902554,-4.226303,-16.966248,-17.046547,-16.818810,-16.912746,6
943817689,-11.552811,-13.165379,-1.612568,12.359095,-4.970121,-7.388973,-4.906988,-4.232025,-16.970682,-17.050552,-16.823244,-16.917562,6
943819687,-11.544800,-13.160086,-1.615286,12.352443,-4.964757,-7.387686,-4.904270,-4.233837,-16.972494,-17.052841,-16.824818,-16.918755,6
943821685,-11.545753,-13.162804,-1.617050,12.354279,-4.964352,-7.389927,-4.909897,-4.242039,-16.975880,-17.055988,-16.828060,-16.922331,6
943823682,-11.549330,-13.166142,-1.616812,12.357736,-4.966259,-7.391477,-4.910421,-4.242229,-16.977119,-17.057228,-16.830063,-16.924286,6
943825680,-11.552238,-13.169479,-1.617241,12.360859,-4.967499,-7.393360,-4.909563,-4.240608,-16.975927,-17.055559,-16.828012,-16.922426,6
943827678,-11.557961,-13.176155,-1.618195,12.367058,-4.969883,-7.397175,-4.909039,-4.237700,-16.973114,-17.052269,-16.824484,-16.919565,6
943829676,-11.561012,-13.179111,-1.618099,12.370062,-4.971457,-7.398605,-4.907799,-4.234171,-16.968012,-17.047453,-16.819811,-16.914701,6
943831674,-11.563826,-13.180923,-1.617098,12.372375,-4.973364,-7.399011,-4.907322,-4.233551,-16.965675,-17.045546,-16.818380,-16.912270,6
943833672,-11.559010,-13.178253,-1.619244,12.368631,-4.969883,-7.398748,-4.902744,-4.229832,-16.963768,-17.044306,-16.816473,-16.910505,6
943835670,-11.553097,-13.175440,-1.622343,12.364268,-4.965377,-7.398891,-4.908037,-4.233789,-16.967916,-17.048073,-16.821146,-16.915369,6
943837671,-11.541176,-13.165998,-1.624823,12.353587,-4.958177,-7.395411,-4.893732,-4.221869,-16.967010,-17.046642,-16.820002,-16.912270,6
943839669,-11.508894,-13.138342,-1.629448,12.323618,-4.939723,-7.383895,-4.821205,-4.158020,-16.947842,-17.028189,-16.796112,-16.879845,6
943841667,-11.490059,-13.127804,-1.637745,12.308931,-4.926157,-7.382774,-4.873610,-4.205465,-16.967106,-17.047501,-16.816950,-16.895962,6
943843665,-11.500788,-13.136244,-1.635456,12.318516,-4.932666,-7.385850,-4.905033,-4.235125,-16.977119,-17.057371,-16.829205,-16.910696,6
943845663,-11.513472,-13.143969,-1.630497,12.328720,-4.941487,-7.387233,-4.907799,-4.236984,-16.976833,-17.055893,-16.828489,-16.911411,6
943847661,-11.524248,-13.149118,-1.624870,12.336683,-4.949689,-7.386994,-4.907799,-4.233551,-16.973686,-17.052889,-16.825104,-16.910028,6
943849659,-11.531162,-13.149929,-1.618767,12.340546,-4.956198,-7.384348,-4.905272,-4.228973,-16.967964,-17.047596,-16.819334,-16.906118,6
943851659,-11.537027,-13.151264,-1.614237,12.344146,-4.961395,-7.382751,-4.901695,-4.226732,-16.965055,-17.044401,-16.816902,-16.904402,6
943853655,-11.534262,-13.147879,-1.613617,12.341070,-4.960322,-7.380748,-4.894876,-4.223490,-16.962814,-17.042732,-16.815042,-16.902542,6
943855653,-11.529255,-13.147783,-1.618528,12.338519,-4.955363,-7.383156,-4.901600,-4.231548,-16.967869,-17.047834,-16.820145,-16.908073,6
943857651,-11.525106,-13.147593,-1.622486,12.336349,-4.951310,-7.385039,-4.907513,-4.243565,-16.972828,-17.053318,-16.825151,-16.914272,6
943859649,-11.518908,-13.144016,-1.625109,12.331462,-4.946899,-7.384562,-4.905796,-4.247332,-16.975021,-17.055178,-16.827822,-16.917276,6
943861647,-11.513758,-13.138103,-1.624346,12.325931,-4.944706,-7.381225,-4.904079,-4.244232,-16.974974,-17.054796,-16.827726,-16.916323,6
943863645,-11.518908,-13.143110,-1.624203,12.331009,-4.947352,-7.383657,-4.909325,-4.247952,-16.977406,-17.057991,-16.829967,-16.919327,6
943865643,-11.525488,-13.146782,-1.621294,12.336135,-4.952097,-7.384038,-4.907084,-4.245663,-16.975451,-17.056274,-16.828585,-16.917992,6
943867641,-11.534882,-13.153601,-1.618719,12.344241,-4.958081,-7.386160,-4.907656,-4.243851,-16.973352,-17.053652,-16.825676,-16.916704,6
943869639,-11.541224,-13.157177,-1.615953,12.349200,-4.962635,-7.386565,-4.906607,-4.237509,-16.968441,-17.048693,-16.821337,-16.912413,6
943871638,-11.542702,-13.158178,-1.615477,12.350440,-4.963613,-7.386827,-4.905510,-4.233122,-16.967058,-17.046881,-16.819668,-16.911030,6
943873635,-11.539793,-13.156080,-1.616287,12.347937,-4.961753,-7.386184,-4.901934,-4.229498,-16.966057,-17.046261,-16.817999,-16.909075,6
943875633,-11.531782,-13.154984,-1.623201,12.343383,-4.954290,-7.389092,-4.904699,-4.232407,-16.968679,-17.048931,-16.821718,-16.912937,6
943877630,-11.524677,-13.146544,-1.621866,12.335610,-4.951406,-7.384205,-4.901600,-4.230595,-16.968775,-17.049360,-16.822386,-16.912651,6
943879628,-11.526632,-13.148832,-1.622200,12.337732,-4.952216,-7.385516,-4.909372,-4.237318,-16.974640,-17.055130,-16.827106,-16.918325,6
943881626,-11.528969,-13.151407,-1.622438,12.340188,-4.953265,-7.386923,-4.911709,-4.243374,-16.977167,-17.057467,-16.829586,-16.921091,6
943883624,-11.530972,-13.153505,-1.622534,12.342238,-4.954219,-7.388020,-4.912949,-4.244757,-16.978455,-17.058849,-16.830635,-16.922808,6
943885622,-11.536598,-13.158560,-1.621962,12.347579,-4.957318,-7.390261,-4.912233,-4.243279,-16.976070,-17.057037,-16.829205,-16.921091,6
943887620,-11.546898,-13.163376,-1.616478,12.355137,-4.965210,-7.389927,-4.909086,-4.239988,-16.972733,-17.053223,-16.825533,-16.917753,6
943889618,-11.553478,-13.165188,-1.611710,12.359333,-4.970884,-7.388449,-4.907084,-4.235649,-16.968346,-17.048931,-16.820812,-16.913509,6
943891616,-11.555624,-13.166475,-1.610851,12.361050,-4.972386,-7.388663,-4.904699,-4.232836,-16.965771,-17.046690,-16.818523,-16.911697,6
943893614,-11.550617,-13.164091,-1.613474,12.357354,-4.968572,-7.388783,-4.902315,-4.230833,-16.964340,-17.045355,-16.816521,-16.909504,6
943895613,-11.544561,-13.164091,-1.619530,12.354326,-4.962516,-7.391810,-4.909801,-4.237461,-16.968966,-17.048931,-16.821098,-16.914558,6
943897610,-11.534548,-13.157320,-1.622772,12.345934,-4.955888,-7.390046,-4.908276,-4.237747,-16.970825,-17.049789,-16.822720,-16.915512,6
943899608,-11.532211,-13.155937,-1.623726,12.344074,-4.954243,-7.389832,-4.912233,-4.241133,-16.975689,-17.054653,-16.827393,-16.920042,6
943901606,-11.532354,-13.157463,-1.625109,12.344909,-4.953623,-7.391286,-4.915810,-4.244614,-16.977739,-17.057467,-16.830397,-16.923523,6
943903604,-11.535263,-13.160658,-1.625395,12.347960,-4.954934,-7.393026,-4.916191,-4.246759,-16.979742,-17.059898,-16.832590,-16.926336,6
943905602,-11.541176,-13.163233,-1.622057,12.352204,-4.959559,-7.392645,-4.915762,-4.243755,-16.978645,-17.058182,-16.830921,-16.924715,6
943907600,-11.551523,-13.167906,-1.616383,12.359715,-4.967570,-7.392144,-4.916954,-4.240274,-16.975498,-17.055225,-16.827536,-16.921616,6
943909598,-11.558771,-13.169813,-1.611042,12.364292,-4.973865,-7.390428,-4.916763,-4.234505,-16.969061,-17.049170,-16.821146,-16.915274,6
943911596,-11.561918,-13.173151,-1.611233,12.367535,-4.975343,-7.392192,-4.917240,-4.231787,-16.966295,-17.045832,-16.818333,-16.912079,6
943913594,-11.559439,-13.171291,-1.611853,12.365365,-4.973793,-7.391572,-4.914284,-4.227734,-16.964722,-17.044353,-16.816378,-16.910839,6
943915592,-11.556768,-13.168764,-1.611996,12.362766,-4.972386,-7.390380,-4.915667,-4.229879,-16.968393,-17.047691,-16.819763,-16.914225,6
943917590,-11.554527,-13.167953,-1.613426,12.361240,-4.970551,-7.390690,-4.918385,-4.235268,-16.972351,-17.052126,-16.824579,-16.919088,6
943919589,-11.546707,-13.164377,-1.617670,12.355542,-4.964519,-7.391024,-4.918432,-4.237270,-16.975546,-17.054892,-16.827202,-16.922379,6
943921586,-11.539316,-13.158464,-1.619148,12.348890,-4.960084,-7.388806,-4.915142,-4.234266,-16.974211,-17.054510,-16.826105,-16.920519,6
943923584,-11.546469,-13.164711,-1.618242,12.355590,-4.964113,-7.391477,-4.918861,-4.237175,-16.976404,-17.057133,-16.829443,-16.923714,6
943925582,-11.552572,-13.166618,-1.614046,12.359595,-4.969263,-7.390332,-4.915762,-4.235315,-16.974974,-17.055273,-16.827393,-16.922092,6
943927580,-11.556768,-13.168430,-1.611662,12.362599,-4.972553,-7.390046,-4.913759,-4.232597,-16.971922,-17.052507,-16.824913,-16.919279,6
943929578,-11.561584,-13.171291,-1.609707,12.366438,-4.975939,-7.390499,-4.910326,-4.225779,-16.967106,-17.047453,-16.820002,-16.914082,6
943931575,-11.565065,-13.174725,-1.609659,12.369895,-4.977703,-7.392192,-4.907846,-4.221344,-16.964293,-17.044592,-16.817045,-16.911602,6
943933574,-11.563921,-13.173294,-1.609373,12.368608,-4.977274,-7.391334,-4.906034,-4.221296,-16.963625,-17.043400,-16.816568,-16.911077,6
943935572,-11.556387,-13.169861,-1.613474,12.363124,-4.971457,-7.391667,-4.903507,-4.222250,-16.967249,-17.046833,-16.820049,-16.913939,6
943937570,-11.547184,-13.165951,-1.618767,12.356567,-4.964209,-7.392359,-4.907560,-4.229546,-16.972494,-17.052317,-16.825104,-16.920137,6
943939569,-11.545134,-13.167143,-1.622009,12.356138,-4.961562,-7.394576,-4.913044,-4.235172,-16.977119,-17.056751,-16.829300,-16.924667,6
943941569,-11.527491,-13.150644,-1.623154,12.339067,-4.952168,-7.386899,-4.862118,-4.191256,-16.960382,-17.041016,-16.811371,-16.903067,6
943943566,-11.490440,-13.121891,-1.631451,12.306166,-4.929495,-7.376671,-4.825497,-4.156017,-16.947985,-17.029333,-16.798544,-16.881371,6
943945564,-11.491156,-13.120031,-1.628876,12.305593,-4.931140,-7.374454,-4.892921,-4.215288,-16.968918,-17.049026,-16.821003,-16.903687,6
943947562,-11.508799,-13.131809,-1.623011,12.320304,-4.942894,-7.377410,-4.899454,-4.218912,-16.969538,-17.049074,-16.821384,-16.905832,6
943949560,-11.522818,-13.139582,-1.616764,12.331200,-4.953027,-7.378173,-4.898357,-4.215908,-16.965199,-17.045069,-16.817188,-16.902828,6
943951561,-11.532831,-13.144112,-1.611280,12.338471,-4.960775,-7.377696,-4.898977,-4.213619,-16.963243,-17.043304,-16.815662,-16.902256,6
943953557,-11.532640,-13.143349,-1.610708,12.337995,-4.960966,-7.377028,-4.895735,-4.209423,-16.961432,-17.041159,-16.812801,-16.900492,6
943955554,-11.524916,-13.139915,-1.615000,12.332416,-4.954958,-7.377458,-4.895973,-4.211235,-16.963339,-17.044115,-16.814899,-16.902113,6
943957552,-11.514139,-13.129520,-1.615381,12.321830,-4.949379,-7.372451,-4.890537,-4.207706,-16.963673,-17.043877,-16.815472,-16.899538,6
943959550,-11.517096,-13.132572,-1.615477,12.324834,-4.950809,-7.374024,-4.902172,-4.219246,-16.970158,-17.049837,-16.821957,-16.904116,6
943961548,-11.521292,-13.139820,-1.618528,12.330556,-4.951382,-7.379174,-4.908752,-4.228020,-16.974115,-17.052984,-16.826153,-16.909122,6
943963546,-11.529875,-13.147831,-1.617956,12.338853,-4.955959,-7.382894,-4.911232,-4.229832,-16.974878,-17.054892,-16.827250,-16.912413,6
943965544,-11.539125,-13.155127,-1.616001,12.347126,-4.961562,-7.385564,-4.913616,-4.230213,-16.973305,-17.054081,-16.826487,-16.913033,6
943967542,-11.547804,-13.161039,-1.613235,12.354422,-4.967284,-7.387137,-4.913235,-4.227066,-16.971684,-17.052269,-16.824818,-16.912270,6
943969540,-11.556435,-13.165426,-1.608992,12.360930,-4.973722,-7.387209,-4.908657,-4.222202,-16.967726,-17.047453,-16.820288,-16.908026,6
943971539,-11.560249,-13.168430,-1.608181,12.364340,-4.976034,-7.388306,-4.905510,-4.221630,-16.964960,-17.045069,-16.817856,-16.906357,6
943973537,-11.558390,-13.168812,-1.610422,12.363601,-4.973984,-7.389617,-4.902792,-4.220104,-16.962957,-17.042923,-16.814947,-16.904449,6
943975534,-11.556244,-13.167477,-1.611233,12.361860,-4.972506,-7.389355,-4.905558,-4.223204,-16.966057,-17.045259,-16.818094,-16.907883,6
943977532,-11.547756,-13.159466,-1.611710,12.353611,-4.968023,-7.385588,-4.900455,-4.221392,-16.967297,-17.046976,-16.819286,-16.908693,6
943979530,-11.546898,-13.161659,-1.614761,12.354279,-4.966068,-7.388210,-4.908752,-4.231453,-16.972876,-17.052698,-16.824436,-16.913939,6
943981528,-11.548710,-13.164186,-1.615477,12.356448,-4.966617,-7.389832,-4.914570,-4.237700,-16.975784,-17.055321,-16.827536,-16.918612,6
943983526,-11.556673,-13.168812,-1.612139,12.362742,-4.972267,-7.390475,-4.913759,-4.236841,-16.977119,-17.055893,-16.828871,-16.919374,6
943985524,-11.562538,-13.170671,-1.608133,12.366605,-4.977202,-7.389402,-4.911041,-4.234552,-16.974640,-17.054176,-16.826677,-16.918325,6
943987522,-11.569977,-13.175058,-1.605082,12.372518,-4.982448,-7.390070,-4.909706,-4.231262,-16.971397,-17.051888,-16.824293,-16.916132,6
943989520,-11.574078,-13.177252,-1.603174,12.375665,-4.985452,-7.390213,-4.905081,-4.224014,-16.966581,-17.046499,-16.818666,-16.910982,6
943991519,-11.579227,-13.179731,-1.600504,12.379479,-4.989362,-7.390118,-4.902029,-4.219913,-16.963434,-17.043543,-16.815758,-16.908026,6
943993516,-11.576653,-13.175726,-1.599073,12.376189,-4.988790,-7.387400,-4.894829,-4.214144,-16.961145,-17.041874,-16.813946,-16.906357,6
943995514,-11.570883,-13.174582,-1.603699,12.372732,-4.983592,-7.389140,-4.899549,-4.220343,-16.965008,-17.044783,-16.817284,-16.910172,6
943997512,-11.559200,-13.169003,-1.609802,12.364101,-4.974699,-7.389402,-4.898787,-4.224253,-16.967964,-17.047215,-16.819382,-16.911173,6
943999510,-11.553001,-13.167334,-1.614332,12.360168,-4.969335,-7.390833,-4.905415,-4.234982,-16.973209,-17.053461,-16.825247,-16.917419,6
944001508,-11.554003,-13.167000,-1.612997,12.360501,-4.970503,-7.389998,-4.907465,-4.239607,-16.976643,-17.056942,-16.829014,-16.921091,6
944003505,-11.558533,-13.171053,-1.612520,12.364793,-4.973006,-7.391787,-4.908752,-4.240942,-16.977930,-17.058086,-16.829872,-16.922998,6
944005503,-11.562634,-13.172960,-1.610327,12.367797,-4.976153,-7.391644,-4.907417,-4.238605,-16.975689,-17.055702,-16.827965,-16.921329,6
944007501,-11.569118,-13.175058,-1.605940,12.372088,-4.981589,-7.390499,-4.904413,-4.232693,-16.971874,-17.051744,-16.823912,-16.917086,6
944009499,-11.572456,-13.173962,-1.601505,12.373209,-4.985476,-7.387733,-4.902315,-4.225636,-16.965914,-17.045641,-16.818285,-16.911650,6
944011498,-11.574936,-13.175583,-1.600647,12.375259,-4.987144,-7.388115,-4.900312,-4.222202,-16.962481,-17.041969,-16.816092,-16.909122,6
944013495,-11.571074,-13.171959,-1.600885,12.371516,-4.985094,-7.386422,-4.896164,-4.218435,-16.960716,-17.040300,-16.813087,-16.906595,6
944015493,-11.564350,-13.170481,-1.606131,12.367415,-4.979110,-7.388306,-4.901218,-4.224491,-16.964960,-17.044497,-16.817522,-16.910744,6
944017491,-11.555767,-13.162327,-1.606560,12.359047,-4.974604,-7.384443,-4.899931,-4.223919,-16.967010,-17.046022,-16.818905,-16.911602,6
944019489,-11.558485,-13.165712,-1.607227,12.362099,-4.975629,-7.386470,-4.908657,-4.232979,-16.972637,-17.051792,-16.824532,-16.917992,6
944021487,-11.560965,-13.170433,-1.609468,12.365699,-4.975748,-7.389951,-4.913521,-4.236174,-16.974735,-17.054272,-16.827059,-16.920710,6
944023485,-11.561966,-13.172483,-1.610518,12.367225,-4.975724,-7.391500,-4.913139,-4.237604,-16.975927,-17.055464,-16.828156,-16.922045,6
944025483,-11.561632,-13.172388,-1.610756,12.367010,-4.975438,-7.391572,-4.910564,-4.233932,-16.974258,-17.054272,-16.826725,-16.920519,6
944027481,-11.568403,-13.173771,-1.605368,12.371087,-4.981518,-7.389569,-4.907322,-4.228258,-16.970825,-17.051125,-16.823387,-16.917229,6
944029479,-11.570740,-13.172340,-1.601601,12.371540,-4.984570,-7.386971,-4.903650,-4.220915,-16.965628,-17.046118,-16.817999,-16.912079,6
944031478,-11.571741,-13.170528,-1.598787,12.371135,-4.986477,-7.384658,-4.899168,-4.214144,-16.962099,-17.042828,-16.814375,-16.908979,6
944033475,-11.567879,-13.164949,-1.597071,12.366414,-4.985404,-7.381010,-4.891253,-4.208851,-16.959190,-17.040253,-16.812468,-16.906452,6
944035473,-11.558104,-13.158131,-1.600027,12.358117,-4.979038,-7.379079,-4.887629,-4.208517,-16.960955,-17.041397,-16.813803,-16.907072,6
944037471,-11.550856,-13.153887,-1.603031,12.352371,-4.973912,-7.378459,-4.891253,-4.215956,-16.966772,-17.046261,-16.818619,-16.912174,6
944039469,-11.551666,-13.159800,-1.608133,12.355733,-4.971766,-7.383966,-4.897881,-4.225826,-16.971684,-17.050791,-16.823483,-16.917515,6
944041468,-11.549377,-13.159943,-1.610565,12.354660,-4.969406,-7.385254,-4.900169,-4.230642,-16.972923,-17.052603,-16.825342,-16.919661,6
944043470,-11.534071,-13.145208,-1.611137,12.339640,-4.961467,-7.378173,-4.851627,-4.187536,-16.957045,-17.037678,-16.807127,-16.898584,6
944045468,-11.495399,-13.112259,-1.616859,12.303829,-4.939270,-7.364559,-4.810667,-4.146433,-16.943550,-17.023706,-16.791439,-16.871262,6
944047465,-11.488724,-13.103342,-1.614618,12.296033,-4.937053,-7.358980,-4.869652,-4.194689,-16.958904,-17.039013,-16.809034,-16.883945,6
944049462,-11.504030,-13.113785,-1.609755,12.308908,-4.947138,-7.361770,-4.886389,-4.205036,-16.959715,-17.040014,-16.811180,-16.887856,6
944051462,-11.515379,-13.123035,-1.607656,12.319207,-4.953861,-7.365346,-4.889870,-4.205179,-16.958523,-17.039347,-16.810799,-16.890144,6
944053458,-11.518288,-13.124418,-1.606131,12.321353,-4.956079,-7.365274,-4.887819,-4.201031,-16.956902,-17.037773,-16.808891,-16.890383,6
944055456,-11.517286,-13.125706,-1.608419,12.321496,-4.954433,-7.367063,-4.889584,-4.205370,-16.959620,-17.040110,-16.810989,-16.891766,6
944057454,-11.509562,-13.123417,-1.613855,12.316489,-4.947853,-7.368636,-4.893970,-4.211378,-16.963482,-17.043686,-16.814041,-16.891336,6
944059452,-11.512136,-13.129807,-1.617670,12.320971,-4.947233,-7.373738,-4.905558,-4.224253,-16.970587,-17.050552,-16.822290,-16.900730,6
944061450,-11.515808,-13.133526,-1.617718,12.324667,-4.949045,-7.375622,-4.909325,-4.229593,-16.974068,-17.053175,-16.825628,-16.905975,6
944063448,-11.522341,-13.139915,-1.617575,12.331128,-4.952383,-7.378745,-4.912472,-4.234791,-16.975021,-17.055082,-16.827345,-16.910028,6
944065446,-11.528111,-13.142157,-1.614046,12.335134,-4.957032,-7.378101,-4.911852,-4.234028,-16.974545,-17.054844,-16.826868,-16.910362,6
944067443,-11.538792,-13.148022,-1.609230,12.343407,-4.964781,-7.378626,-4.911518,-4.231787,-16.972256,-17.052650,-16.825008,-16.910028,6
944069441,-11.549425,-13.153172,-1.603746,12.351298,-4.972839,-7.378459,-4.908609,-4.229498,-16.967249,-17.047691,-16.819382,-16.906357,6
944071440,-11.558151,-13.158560,-1.600409,12.358356,-4.978871,-7.379484,-4.907179,-4.226589,-16.963673,-17.043924,-16.815472,-16.903496,6
944073438,-11.558247,-13.159513,-1.601267,12.358880,-4.978490,-7.380390,-4.906893,-4.226828,-16.961670,-17.042398,-16.812992,-16.902256,6
944075435,-11.552525,-13.159752,-1.607227,12.356138,-4.972649,-7.383490,-4.911232,-4.233456,-16.966152,-17.045975,-16.817904,-16.907310,6
944077433,-11.538792,-13.152695,-1.613903,12.345743,-4.962444,-7.383299,-4.910707,-4.234838,-16.968679,-17.048407,-16.820860,-16.908646,6
944079431,-11.533546,-13.153839,-1.620293,12.343693,-4.956627,-7.387066,-4.918766,-4.242849,-16.974592,-17.054129,-16.826630,-16.913986,6
944081429,-11.534262,-13.153696,-1.619434,12.343979,-4.957414,-7.386565,-4.921722,-4.246187,-16.977167,-17.057180,-16.828775,-16.917276,6
944083427,-11.537170,-13.156843,-1.619673,12.347007,-4.958749,-7.388258,-4.924679,-4.246807,-16.978312,-17.058468,-16.830015,-16.920471,6
944085425,-11.539412,-13.159227,-1.619816,12.349319,-4.959798,-7.389522,-4.921389,-4.245090,-16.976404,-17.056656,-16.828632,-16.918945,6
944087423,-11.543989,-13.163757,-1.619768,12.353873,-4.962111,-7.391763,-4.918528,-4.242849,-16.974497,-17.054176,-16.826487,-16.917372,6
944089420,-11.549711,-13.164616,-1.614904,12.357163,-4.967403,-7.389760,-4.915237,-4.236031,-16.968966,-17.048883,-16.821575,-16.912651,6
944091418,-11.558056,-13.168287,-1.610231,12.363172,-4.973912,-7.389259,-4.911184,-4.229927,-16.965675,-17.045307,-16.818380,-16.909790,6
944093416,-11.557961,-13.168049,-1.610088,12.363005,-4.973936,-7.389069,-4.907227,-4.225683,-16.963291,-17.043352,-16.815948,-16.907501,6
944095414,-11.554718,-13.165665,-1.610947,12.360191,-4.971886,-7.388306,-4.907894,-4.230213,-16.965818,-17.045927,-16.818523,-16.910028,6
944097412,-11.546183,-13.163090,-1.616907,12.354636,-4.964638,-7.389998,-4.908848,-4.235983,-16.969442,-17.049837,-16.822195,-16.912270,6
944099410,-11.545467,-13.165760,-1.620293,12.355614,-4.962587,-7.393026,-4.916954,-4.247999,-16.976929,-17.057037,-16.829443,-16.920280,6
944101408,-11.546421,-13.163853,-1.617432,12.355137,-4.964495,-7.390642,-4.918623,-4.251719,-16.978645,-17.058420,-16.831064,-16.922998,6
944103406,-11.551428,-13.165998,-1.614571,12.358713,-4.968429,-7.390285,-4.919147,-4.253197,-16.978693,-17.058659,-16.831446,-16.923761,6
944105404,-11.555243,-13.165331,-1.610088,12.360287,-4.972577,-7.387710,-4.913950,-4.248190,-16.976213,-17.055750,-16.827917,-16.920853,6
944107401,-11.560154,-13.166714,-1.606560,12.363434,-4.976797,-7.386637,-4.910946,-4.242992,-16.972876,-17.052555,-16.824865,-16.918039,6
944109399,-11.566734,-13.165951,-1.599216,12.366343,-4.983759,-7.382584,-4.909134,-4.236889,-16.966677,-17.047262,-16.819048,-16.912985,6
944111400,-11.571550,-13.169861,-1.598310,12.370706,-4.986620,-7.384086,-4.909325,-4.233789,-16.964293,-17.044353,-16.816187,-16.910267,6
944113396,-11.570644,-13.170815,-1.600170,12.370729,-4.985237,-7.385492,-4.907131,-4.232502,-16.962385,-17.042589,-16.814947,-16.908312,6
944115393,-11.563540,-13.165855,-1.602316,12.364697,-4.980612,-7.384086,-4.905176,-4.235029,-16.964817,-17.044973,-16.816950,-16.910124,6
944117391,-11.552954,-13.157368,-1.604414,12.355161,-4.974270,-7.380891,-4.903650,-4.235315,-16.967535,-17.047119,-16.818237,-16.911459,6
944119389,-11.553955,-13.160419,-1.606464,12.357187,-4.973745,-7.383442,-4.912472,-4.244518,-16.973209,-17.053270,-16.825008,-16.918230,6
944121387,-11.555338,-13.164616,-1.609278,12.359977,-4.973030,-7.386947,-4.913378,-4.249859,-16.975498,-17.056036,-16.828585,-16.921282,6
944123385,-11.555147,-13.167906,-1.612759,12.361526,-4.971194,-7.390332,-4.913855,-4.250956,-16.977644,-17.057753,-16.829967,-16.923523,6
944125383,-11.559343,-13.170862,-1.611519,12.365103,-4.973912,-7.391191,-4.912615,-4.249382,-16.976452,-17.056131,-16.828442,-16.922855,6
944127381,-11.566973,-13.175774,-1.608801,12.371373,-4.979086,-7.392287,-4.907894,-4.246187,-16.973066,-17.052794,-16.825199,-16.920137,6
944129379,-11.572742,-13.178635,-1.605892,12.375689,-4.983425,-7.392263,-4.905987,-4.240274,-16.968012,-17.047691,-16.820574,-16.915607,6
944131377,-11.574697,-13.181019,-1.606321,12.377858,-4.984188,-7.393670,-4.906321,-4.235697,-16.966534,-17.046452,-16.817951,-16.913414,6
944133375,-11.570644,-13.180542,-1.609898,12.375593,-4.980373,-7.395220,-4.903841,-4.235268,-16.964388,-17.045307,-16.816473,-16.911507,6
944135373,-11.568403,-13.179731,-1.611328,12.374067,-4.978538,-7.395530,-4.906416,-4.242992,-16.967726,-17.047834,-16.820240,-16.915274,6
944137370,-11.562109,-13.177443,-1.615334,12.369776,-4.973388,-7.396388,-4.908514,-4.247713,-16.971207,-17.050743,-16.823483,-16.918564,6
944139368,-11.549807,-13.168764,-1.618958,12.359285,-4.965425,-7.393861,-4.904556,-4.247284,-16.972589,-17.051792,-16.823816,-16.918755,6
944141366,-11.544275,-13.166857,-1.622581,12.355566,-4.960847,-7.394719,-4.914379,-4.253769,-16.976213,-17.055464,-16.827536,-16.922331,6
944143364,-11.544609,-13.170099,-1.625490,12.357354,-4.959559,-7.397795,-4.920053,-4.258204,-16.977882,-17.057753,-16.830635,-16.924953,6
944145364,-11.541891,-13.168287,-1.626396,12.355089,-4.957747,-7.397342,-4.906607,-4.246855,-16.972113,-17.052889,-16.824484,-16.918373,6
944147363,-11.511850,-13.139009,-1.627159,12.325430,-4.942346,-7.383084,-4.825926,-4.169559,-16.942549,-17.023802,-16.791534,-16.876888,6
944149361,-11.501312,-13.126898,-1.625586,12.314105,-4.937863,-7.376242,-4.868984,-4.202986,-16.954279,-17.034578,-16.804504,-16.886091,6
944151361,-11.515808,-13.133335,-1.617527,12.324572,-4.949141,-7.375431,-4.896212,-4.224586,-16.961575,-17.040920,-16.813040,-16.897535,6
944153358,-11.521053,-13.135386,-1.614332,12.328219,-4.953361,-7.374859,-4.892492,-4.222059,-16.959667,-17.039013,-16.810989,-16.896200,6
944155354,-11.513710,-13.131809,-1.618099,12.322760,-4.947805,-7.374954,-4.892731,-4.222965,-16.961336,-17.041826,-16.812706,-16.897345,6
944157352,-11.508894,-13.131428,-1.622534,12.320161,-4.943180,-7.376981,-4.901505,-4.234982,-16.967249,-17.047834,-16.819191,-16.902733,6
944159350,-11.513090,-13.137150,-1.624060,12.325120,-4.944515,-7.380605,-4.907703,-4.245567,-16.973591,-17.053270,-16.825819,-16.910362,6
944161348,-11.517811,-13.138390,-1.620579,12.328100,-4.948616,-7.379484,-4.909086,-4.250240,-16.976166,-17.056417,-16.828537,-16.914082,6
944163346,-11.524248,-13.142014,-1.617765,12.333131,-4.953241,-7.379889,-4.907227,-4.252005,-16.978216,-17.058659,-16.830873,-16.917562,6
944165344,-11.531162,-13.144207,-1.613045,12.337685,-4.959059,-7.378626,-4.903603,-4.248285,-16.977262,-17.056704,-16.829348,-16.916895,6
944167342,-11.539221,-13.146400,-1.607180,12.342811,-4.966021,-7.376790,-4.900360,-4.243040,-16.974163,-17.053604,-16.826010,-16.914225,6
944169340,-11.544609,-13.145876,-1.601267,12.345243,-4.971671,-7.373571,-4.899216,-4.236507,-16.967106,-17.047453,-16.820145,-16.909599,6
944171339,-11.547470,-13.149309,-1.601839,12.348390,-4.972816,-7.375574,-4.898262,-4.231977,-16.964006,-17.043972,-16.816235,-16.907024,6
944173336,-11.548471,-13.149118,-1.600647,12.348795,-4.973912,-7.374883,-4.894114,-4.228449,-16.962147,-17.041349,-16.813231,-16.904163,6
944175335,-11.547041,-13.148975,-1.601934,12.348008,-4.972553,-7.375455,-4.895639,-4.233265,-16.965437,-17.044735,-16.816187,-16.907167,6
944177332,-11.536407,-13.143730,-1.607323,12.340069,-4.964542,-7.375526,-4.894876,-4.235458,-16.967392,-17.046881,-16.819048,-16.908693,6
944179330,-11.537409,-13.150072,-1.612663,12.343740,-4.962373,-7.381368,-4.903603,-4.243660,-16.973639,-17.053080,-16.825724,-16.916275,6
944181328,-11.536646,-13.151264,-1.614618,12.343955,-4.961014,-7.382941,-4.907656,-4.246426,-16.976070,-17.056036,-16.827679,-16.918707,6
944183326,-11.540365,-13.153887,-1.613522,12.347126,-4.963422,-7.383704,-4.912138,-4.248667,-16.977596,-17.057133,-16.829586,-16.920614,6
944185324,-11.543322,-13.156462,-1.613140,12.349892,-4.965091,-7.384801,-4.911232,-4.250097,-16.976070,-17.056131,-16.828156,-16.919804,6
944187322,-11.548233,-13.159370,-1.611137,12.353802,-4.968548,-7.385254,-4.908466,-4.246140,-16.973162,-17.052984,-16.825390,-16.917181,6
944189320,-11.556196,-13.160992,-1.604795,12.358594,-4.975700,-7.382894,-4.905844,-4.238319,-16.967821,-17.047930,-16.820383,-16.912270,6
944191318,-11.561728,-13.164282,-1.602554,12.363005,-4.979587,-7.383418,-4.904747,-4.233646,-16.964388,-17.044306,-16.817141,-16.909266,6
944193317,-11.562634,-13.164377,-1.601744,12.363505,-4.980445,-7.383060,-4.900503,-4.229021,-16.961813,-17.041445,-16.813612,-16.906548,6
944195314,-11.556673,-13.158226,-1.601553,12.357450,-4.977560,-7.379889,-4.896688,-4.228449,-16.963816,-17.043400,-16.815948,-16.908503,6
944197312,-11.551714,-13.154650,-1.602936,12.353182,-4.974389,-7.378793,-4.900312,-4.236078,-16.969156,-17.049026,-16.821527,-16.913748,6
944199313,-11.551189,-13.152790,-1.601601,12.351990,-4.974794,-7.377195,-4.899788,-4.237556,-16.973877,-17.054129,-16.825724,-16.917562,6
944201308,-11.541939,-13.143110,-1.601171,12.342525,-4.970384,-7.372141,-4.890776,-4.227352,-16.969776,-17.049885,-16.821098,-16.910982,6
944203307,-11.538601,-13.143587,-1.604986,12.341094,-4.966807,-7.374287,-4.895401,-4.232454,-16.970110,-17.050314,-16.822577,-16.911030,6
944205307,-11.545372,-13.150692,-1.605320,12.348032,-4.970026,-7.378006,-4.902124,-4.238558,-16.972160,-17.051458,-16.824293,-16.913462,6
944207302,-11.551714,-13.155460,-1.603746,12.353587,-4.973984,-7.379603,-4.900408,-4.234314,-16.969585,-17.049789,-16.821480,-16.911745,6
944209300,-11.561012,-13.161755,-1.600742,12.361383,-4.980135,-7.381248,-4.897642,-4.229021,-16.964388,-17.044306,-16.816664,-16.908216,6
944211298,-11.567354,-13.169289,-1.601934,12.368321,-4.982710,-7.385612,-4.898977,-4.227924,-16.961479,-17.042112,-16.814566,-16.905975,6
944213296,-11.567211,-13.167191,-1.599979,12.367201,-4.983616,-7.383585,-4.893827,-4.225588,-16.959476,-17.039490,-16.812515,-16.903687,6
944215295,-11.562967,-13.162470,-1.599503,12.362719,-4.981732,-7.380986,-4.893875,-4.229593,-16.963243,-17.042685,-16.815758,-16.907072,6
944217292,-11.553383,-13.154840,-1.601458,12.354112,-4.975963,-7.378149,-4.890871,-4.230642,-16.965961,-17.044830,-16.817093,-16.909075,6
944219290,-11.549377,-13.155365,-1.605988,12.352371,-4.971695,-7.380676,-4.899073,-4.239368,-16.971064,-17.050457,-16.822338,-16.914415,6
944221288,-11.546993,-13.157558,-1.610565,12.352276,-4.968214,-7.384062,-4.905558,-4.244614,-16.974020,-17.053986,-16.826391,-16.918230,6
944223286,-11.549044,-13.163137,-1.614094,12.356091,-4.967475,-7.388616,-4.909658,-4.247856,-16.975784,-17.056274,-16.828108,-16.920376,6
944225284,-11.554670,-13.167334,-1.612663,12.361002,-4.971004,-7.389998,-4.907465,-4.246759,-16.974020,-17.054415,-16.826153,-16.919422,6
944227282,-11.560822,-13.171005,-1.610184,12.365913,-4.975319,-7.390594,-4.906273,-4.243326,-16.972542,-17.052412,-16.823864,-16.917419,6
944229280,-11.566734,-13.172245,-1.605511,12.369490,-4.980612,-7.388878,-4.901457,-4.235744,-16.967249,-17.047262,-16.819668,-16.913033,6
944231278,-11.572123,-13.176537,-1.604414,12.374330,-4.983854,-7.390475,-4.898882,-4.232836,-16.964006,-17.044497,-16.816425,-16.910172,6
944233275,-11.574078,-13.179922,-1.605844,12.377000,-4.984117,-7.392883,-4.897928,-4.234076,-16.962528,-17.042732,-16.814661,-16.908407,6
944235273,-11.570024,-13.178158,-1.608133,12.374091,-4.980946,-7.393146,-4.896355,-4.233456,-16.964340,-17.043638,-16.815233,-16.909409,6
944237273,-11.559534,-13.172102,-1.612568,12.365818,-4.973483,-7.392335,-4.897070,-4.233694,-16.967392,-17.046881,-16.819143,-16.912603,6
944239269,-11.545849,-13.161516,-1.615667,12.353683,-4.965091,-7.388592,-4.892397,-4.231358,-16.967249,-17.047644,-16.818953,-16.911459,6
944241267,-11.544275,-13.161421,-1.617146,12.352848,-4.963565,-7.389283,-4.901981,-4.239130,-16.972113,-17.051983,-16.823387,-16.915941,6
944243266,-11.550236,-13.167477,-1.617241,12.358856,-4.966497,-7.392359,-4.905987,-4.242802,-16.974545,-17.053938,-16.826773,-16.918850,6
944245264,-11.555481,-13.171053,-1.615572,12.363267,-4.969954,-7.393312,-4.906750,-4.241276,-16.973305,-17.052460,-16.825294,-16.918325,6
944247264,-11.560965,-13.173676,-1.612711,12.367320,-4.974127,-7.393193,-4.896498,-4.228497,-16.966248,-17.046404,-16.818428,-16.910887,6
944249262,-11.532402,-13.146925,-1.614523,12.339664,-4.958940,-7.380724,-4.817533,-4.153109,-16.936016,-17.016506,-16.785383,-16.868067,6
944251263,-11.515903,-13.136244,-1.620340,12.326074,-4.947782,-7.378292,-4.863644,-4.191303,-16.949034,-17.029047,-16.800117,-16.874647,6
944253258,-11.520433,-13.136578,-1.616144,12.328506,-4.952145,-7.376361,-4.890680,-4.214811,-16.957712,-17.036867,-16.808891,-16.884422,6
944255256,-11.517143,-13.135815,-1.618671,12.326479,-4.949236,-7.377243,-4.891586,-4.218960,-16.960192,-17.039251,-16.811085,-16.885757,6
944257254,-11.516857,-13.138962,-1.622105,12.327909,-4.947376,-7.380533,-4.902697,-4.230833,-16.966677,-17.046928,-16.818094,-16.893816,6
944259251,-11.518908,-13.143206,-1.624298,12.331057,-4.947305,-7.383752,-4.909849,-4.239416,-16.972876,-17.053556,-16.824818,-16.902494,6
944261249,-11.518908,-13.145494,-1.626587,12.332201,-4.946160,-7.386041,-4.912472,-4.243660,-16.976166,-17.056370,-16.828442,-16.907978,6
944263247,-11.523485,-13.148642,-1.625156,12.336063,-4.949164,-7.386899,-4.912424,-4.245996,-16.977739,-17.058039,-16.829824,-16.911221,6
944265245,-11.533356,-13.150883,-1.617527,12.342119,-4.957914,-7.384205,-4.910803,-4.243326,-16.975260,-17.055607,-16.827059,-16.910362,6
944267243,-11.544228,-13.153315,-1.609087,12.348771,-4.967570,-7.381201,-4.908276,-4.238176,-16.971874,-17.051697,-16.823339,-16.908884,6
944269241,-11.553383,-13.156080,-1.602697,12.354732,-4.975343,-7.379389,-4.905176,-4.235125,-16.967106,-17.046165,-16.818857,-16.905642,6
944271240,-11.559343,-13.159466,-1.600122,12.359405,-4.979610,-7.379794,-4.901695,-4.231024,-16.963530,-17.042446,-16.814661,-16.902590,6
944273237,-11.562395,-13.159609,-1.597214,12.361002,-4.982591,-7.378411,-4.897308,-4.226398,-16.961002,-17.040300,-16.812372,-16.900396,6
944275235,-11.560535,-13.159847,-1.599312,12.360191,-4.980612,-7.379580,-4.904699,-4.233360,-16.964722,-17.044163,-16.817141,-16.905737,6
944277233,-11.553001,-13.155746,-1.602745,12.354374,-4.975128,-7.379246,-4.904842,-4.236460,-16.967630,-17.047691,-16.820049,-16.909409,6
944279231,-11.544085,-13.150644,-1.606560,12.347364,-4.968762,-7.378602,-4.903889,-4.237843,-16.969728,-17.049885,-16.822863,-16.910982,6
944281229,-11.545420,-13.155174,-1.609755,12.350297,-4.967833,-7.382464,-4.912043,-4.245996,-16.974926,-17.054510,-16.827202,-16.915655,6
944283227,-11.547899,-13.160038,-1.612139,12.353969,-4.967880,-7.386088,-4.916048,-4.251051,-16.976833,-17.056894,-16.828680,-16.918468,6
944285224,-11.550617,-13.162899,-1.612282,12.356758,-4.969168,-7.387590,-4.915762,-4.252005,-16.974783,-17.055035,-16.827393,-16.918325,6
944287222,-11.556721,-13.166761,-1.610041,12.361741,-4.973340,-7.388401,-4.911757,-4.249048,-16.972113,-17.052364,-16.825342,-16.915274,6
944289220,-11.563635,-13.168144,-1.604509,12.365890,-4.979563,-7.386327,-4.907179,-4.242039,-16.966295,-17.047310,-16.819429,-16.910267,6
944291218,-11.569214,-13.168192,-1.598978,12.368703,-4.985118,-7.383585,-4.901934,-4.234266,-16.962957,-17.042589,-16.815138,-16.907310,6
944293216,-11.566877,-13.166380,-1.599503,12.366629,-4.983687,-7.382941,-4.896212,-4.230165,-16.961527,-17.040682,-16.813135,-16.905451,6
944295216,-11.563110,-13.165331,-1.602221,12.364221,-4.980445,-7.383776,-4.901505,-4.237366,-16.966248,-17.044973,-16.817665,-16.909790,6
944297215,-11.556625,-13.162231,-1.605606,12.359428,-4.975510,-7.383919,-4.906273,-4.242849,-16.970253,-17.049503,-16.822147,-16.914558,6
944299217,-11.546612,-13.159800,-1.613188,12.353206,-4.966712,-7.386494,-4.906607,-4.245806,-16.971397,-17.051029,-16.823387,-16.915751,6
944301216,-11.538982,-13.156462,-1.617479,12.347722,-4.960752,-7.386971,-4.908991,-4.248762,-16.973352,-17.052031,-16.824770,-16.916561,6
944303206,-11.543179,-13.161182,-1.618004,12.352180,-4.962587,-7.389593,-4.916048,-4.254770,-16.976738,-17.055941,-16.828346,-16.920757,6
944305204,-11.548996,-13.165808,-1.616812,12.357402,-4.966092,-7.391310,-4.916811,-4.255629,-16.975212,-17.055225,-16.827917,-16.920376,6
944307202,-11.555624,-13.171959,-1.616335,12.363791,-4.969645,-7.394147,-4.915667,-4.253006,-16.973257,-17.053366,-16.825819,-16.918755,6
944309200,-11.564112,-13.174677,-1.610565,12.369394,-4.976773,-7.392621,-4.911900,-4.245043,-16.967630,-17.047739,-16.820574,-16.913652,6
944311198,-11.568069,-13.175821,-1.607752,12.371945,-4.980159,-7.391787,-4.910994,-4.242706,-16.964960,-17.044401,-16.817236,-16.910982,6
944313196,-11.565065,-13.173819,-1.608753,12.369442,-4.978156,-7.391286,-4.906464,-4.239130,-16.963482,-17.042542,-16.814518,-16.907883,6
944315194,-11.558723,-13.171768,-1.613045,12.365246,-4.972839,-7.392406,-4.907131,-4.241896,-16.966200,-17.045355,-16.817999,-16.910172,6
944317192,-11.552429,-13.169575,-1.617146,12.361002,-4.967642,-7.393360,-4.913473,-4.249907,-16.970587,-17.050219,-16.822958,-16.916656,6
944319190,-11.549091,-13.171864,-1.622772,12.360477,-4.963160,-7.397318,-4.916286,-4.254913,-16.975117,-17.054844,-16.827440,-16.921282,6
944321188,-11.545658,-13.172102,-1.626444,12.358880,-4.959607,-7.399273,-4.918385,-4.257870,-16.977262,-17.056847,-16.830492,-16.923809,6
944323186,-11.544466,-13.170576,-1.626110,12.357521,-4.959178,-7.398343,-4.916382,-4.255629,-16.977644,-17.057467,-16.830397,-16.923904,6
944325184,-11.543083,-13.164949,-1.621866,12.354016,-4.960608,-7.393408,-4.907799,-4.245567,-16.973400,-17.053890,-16.826105,-16.918945,6
944327182,-11.550522,-13.168621,-1.618099,12.359571,-4.966211,-7.393360,-4.910183,-4.243422,-16.972589,-17.052698,-16.824579,-16.918755,6
944329180,-11.555243,-13.170576,-1.615334,12.362909,-4.969954,-7.392955,-4.908085,-4.235363,-16.967583,-17.047834,-16.820288,-16.914082,6
944331178,-11.560583,-13.169575,-1.608992,12.365079,-4.975796,-7.389283,-4.904032,-4.228926,-16.963434,-17.043447,-16.815138,-16.908979,6
944333176,-11.558723,-13.166046,-1.607323,12.362385,-4.975700,-7.386684,-4.900980,-4.223299,-16.960287,-17.040539,-16.811371,-16.905165,6
944335174,-11.551952,-13.162851,-1.610899,12.357402,-4.970527,-7.386875,-4.901028,-4.226208,-16.962147,-17.041731,-16.813564,-16.906834,6
944337172,-11.547136,-13.165760,-1.618624,12.356448,-4.964256,-7.392192,-4.911137,-4.238653,-16.968966,-17.048073,-16.820860,-16.914558,6
944339170,-11.544275,-13.167763,-1.623487,12.356019,-4.960394,-7.395625,-4.917288,-4.246521,-16.974401,-17.053556,-16.825962,-16.920090,6
944341168,-11.541891,-13.167953,-1.626062,12.354922,-4.957914,-7.397008,-4.920435,-4.250336,-16.976261,-17.055798,-16.828060,-16.921568,6
944343165,-11.544371,-13.171387,-1.627016,12.357879,-4.958677,-7.399201,-4.920912,-4.251432,-16.977787,-17.057276,-16.829538,-16.923285,6
944345163,-11.549282,-13.172770,-1.623487,12.361026,-4.962897,-7.398129,-4.919386,-4.249716,-16.976166,-17.056036,-16.827917,-16.921902,6
944347161,-11.551905,-13.172865,-1.620960,12.362385,-4.965472,-7.396913,-4.917431,-4.244709,-16.973972,-17.053270,-16.825485,-16.920090,6
944349160,-11.557722,-13.175583,-1.617861,12.366652,-4.969931,-7.396722,-4.916286,-4.237366,-16.968203,-17.047977,-16.820526,-16.915035,6
944351163,-11.549759,-13.163376,-1.613617,12.356567,-4.968071,-7.388496,-4.866457,-4.190159,-16.948032,-17.028093,-16.798830,-16.889715,6
944353159,-11.511850,-13.132238,-1.620388,12.322044,-4.945731,-7.376313,-4.827309,-4.151821,-16.935396,-17.015028,-16.783571,-16.865253,6
944355156,-11.501408,-13.125181,-1.623774,12.313294,-4.938817,-7.374477,-4.893255,-4.211378,-16.959143,-17.039347,-16.810417,-16.891575,6
944357154,-11.497688,-13.123322,-1.625633,12.310505,-4.936028,-7.374477,-4.903364,-4.223347,-16.965723,-17.045832,-16.817999,-16.897297,6
944359152,-11.504221,-13.130045,-1.625824,12.317133,-4.939198,-7.377934,-4.909706,-4.232931,-16.973162,-17.053080,-16.824913,-16.905737,6
944361150,-11.510420,-13.134766,-1.624346,12.322593,-4.943037,-7.379556,-4.913998,-4.237366,-16.976500,-17.055845,-16.828203,-16.910601,6
944363148,-11.518574,-13.141823,-1.623249,12.330198,-4.947662,-7.382536,-4.916382,-4.240179,-16.977310,-17.056894,-16.829681,-16.913080,6
944365146,-11.528826,-13.147306,-1.618481,12.338066,-4.955173,-7.382894,-4.914856,-4.237986,-16.975021,-17.054605,-16.827440,-16.913080,6
944367144,-11.538839,-13.154793,-1.615953,12.346816,-4.961443,-7.385373,-4.913378,-4.234838,-16.972971,-17.052650,-16.825056,-16.911936,6
944369142,-11.549330,-13.159609,-1.610279,12.354469,-4.969525,-7.384944,-4.910660,-4.230213,-16.967726,-17.047739,-16.820145,-16.908455,6
944371141,-11.556053,-13.165760,-1.609707,12.360907,-4.973173,-7.387733,-4.908323,-4.227304,-16.964245,-17.044830,-16.816854,-16.905975,6
944373139,-11.552668,-13.164902,-1.612234,12.358785,-4.970217,-7.388568,-4.903030,-4.224825,-16.962242,-17.042255,-16.813850,-16.903877,6
944375136,-11.554241,-13.165283,-1.611042,12.359762,-4.971600,-7.388163,-4.907656,-4.232025,-16.966057,-17.046404,-16.818094,-16.908789,6
944377134,-11.549568,-13.162947,-1.613379,12.356257,-4.968095,-7.388163,-4.911852,-4.238844,-16.970968,-17.050934,-16.823006,-16.913843,6
944379132,-11.545134,-13.164806,-1.619673,12.354970,-4.962730,-7.392240,-4.914474,-4.244518,-16.976023,-17.056084,-16.827822,-16.918993,6
944381130,-11.542940,-13.165188,-1.622248,12.354064,-4.960346,-7.393718,-4.916286,-4.247570,-16.978359,-17.057943,-16.830015,-16.921234,6
944383128,-11.537266,-13.160086,-1.622820,12.348676,-4.957223,-7.391453,-4.912233,-4.243422,-16.977358,-17.056513,-16.828775,-16.919994,6
944385126,-11.537981,-13.158989,-1.621008,12.348485,-4.958487,-7.389998,-4.914618,-4.244184,-16.976023,-17.055798,-16.828012,-16.918659,6
944387124,-11.545706,-13.166380,-1.620674,12.356043,-4.962516,-7.393527,-4.914093,-4.245472,-16.974545,-17.054510,-16.826630,-16.918468,6
944389122,-11.549044,-13.169622,-1.620579,12.359333,-4.964232,-7.395101,-4.912519,-4.241991,-16.969967,-17.051029,-16.822386,-16.914797,6
944391121,-11.553621,-13.170099,-1.616478,12.361860,-4.968572,-7.393289,-4.908848,-4.235268,-16.966677,-17.047548,-16.819620,-16.911459,6
944393118,-11.551905,-13.166952,-1.615047,12.359428,-4.968429,-7.391000,-4.901361,-4.227018,-16.963911,-17.043447,-16.815853,-16.907120,6
944395116,-11.545658,-13.161659,-1.616001,12.353659,-4.964828,-7.388830,-4.901934,-4.228592,-16.965103,-17.045021,-16.816807,-16.907406,6
944397114,-11.542892,-13.162088,-1.619196,12.352490,-4.961848,-7.390642,-4.913092,-4.240227,-16.969728,-17.050219,-16.822100,-16.913509,6
944399112,-11.543274,-13.164139,-1.620865,12.353706,-4.961205,-7.392502,-4.917431,-4.245901,-16.974974,-17.055178,-16.827106,-16.919088,6
944401110,-11.545563,-13.166523,-1.620960,12.356043,-4.962301,-7.393742,-4.917955,-4.249811,-16.976976,-17.057133,-16.829443,-16.921806,6
944403108,-11.551332,-13.171387,-1.620054,12.361360,-4.965639,-7.395720,-4.918861,-4.250479,-16.978693,-17.058182,-16.830635,-16.923237,6
944405106,-11.557579,-13.176012,-1.618433,12.366796,-4.969573,-7.397223,-4.917574,-4.249239,-16.977024,-17.057037,-16.829586,-16.921854,6
944407104,-11.563349,-13.180780,-1.617432,12.372065,-4.972959,-7.399106,-4.913950,-4.243135,-16.975021,-17.054224,-16.826582,-16.919184,6
944409102,-11.570597,-13.184071,-1.613474,12.377334,-4.978561,-7.398772,-4.911280,-4.237986,-16.969538,-17.048931,-16.821527,-16.914654,6
944411101,-11.577320,-13.185596,-1.608276,12.381458,-4.984522,-7.396936,-4.908466,-4.234648,-16.965342,-17.045832,-16.817760,-16.911173,6
944413099,-11.578608,-13.185549,-1.606941,12.382078,-4.985833,-7.396245,-4.904318,-4.230404,-16.962576,-17.042828,-16.814566,-16.908169,6
944415096,-11.572123,-13.179398,-1.607275,12.375760,-4.982424,-7.393336,-4.899693,-4.226923,-16.962385,-17.042685,-16.814089,-16.907406,6
944417094,-11.569691,-13.176346,-1.606655,12.373018,-4.981518,-7.391500,-4.906321,-4.234743,-16.967201,-17.047262,-16.819096,-16.912794,6
944419092,-11.565304,-13.178205,-1.612902,12.371755,-4.976201,-7.395554,-4.909992,-4.243565,-16.972971,-17.053127,-16.825104,-16.918612,6
944421090,-11.560154,-13.178635,-1.618481,12.369394,-4.970837,-7.398558,-4.909611,-4.245424,-16.976166,-17.055511,-16.828108,-16.921711,6
944423088,-11.557579,-13.178062,-1.620483,12.367821,-4.968548,-7.399273,-4.908609,-4.246521,-16.978216,-17.057753,-16.830492,-16.923761,6
944425086,-11.555624,-13.178301,-1.622677,12.366962,-4.966474,-7.400489,-4.908085,-4.247665,-16.977358,-17.057276,-16.829348,-16.923189,6
944427084,-11.561060,-13.181353,-1.620293,12.371206,-4.970384,-7.400823,-4.906607,-4.247236,-16.974783,-17.055035,-16.827154,-16.921473,6
944429082,-11.563349,-13.181639,-1.618290,12.372494,-4.972529,-7.399964,-4.903316,-4.240417,-16.968441,-17.048597,-16.820955,-16.915083,6
944431080,-11.566067,-13.182449,-1.616383,12.374258,-4.974842,-7.399416,-4.902649,-4.234695,-16.964722,-17.044449,-16.817474,-16.911364,6
944433078,-11.563110,-13.179588,-1.616478,12.371349,-4.973316,-7.398033,-4.897881,-4.229832,-16.961527,-17.041254,-16.814995,-16.908455,6
944435076,-11.558104,-13.179016,-1.620913,12.368560,-4.968596,-7.399964,-4.899025,-4.235315,-16.965199,-17.044830,-16.818333,-16.911793,6
944437074,-11.546183,-13.172054,-1.625872,12.359118,-4.960155,-7.398963,-4.895401,-4.237318,-16.967344,-17.047215,-16.819429,-16.913080,6
944439072,-11.544514,-13.175774,-1.631260,12.360144,-4.956627,-7.403517,-4.905272,-4.248142,-16.974068,-17.052889,-16.825533,-16.919899,6
944441070,-11.543655,-13.177490,-1.633835,12.360573,-4.954910,-7.405663,-4.911757,-4.254436,-16.977310,-17.056417,-16.829491,-16.924095,6
944443067,-11.544895,-13.178539,-1.633644,12.361717,-4.955626,-7.406092,-4.915667,-4.258347,-16.978836,-17.057991,-16.831684,-16.926241,6
944445065,-11.545372,-13.177109,-1.631737,12.361240,-4.956818,-7.404423,-4.914093,-4.256248,-16.977501,-17.057228,-16.830349,-16.924572,6
944447063,-11.548376,-13.177490,-1.629114,12.362933,-4.959631,-7.403302,-4.910040,-4.250097,-16.974878,-17.054081,-16.827440,-16.921663,6
944449061,-11.557865,-13.180828,-1.622963,12.369347,-4.967451,-7.401896,-4.904127,-4.244852,-16.969252,-17.048788,-16.822290,-16.915846,6
944451061,-11.566734,-13.184071,-1.617336,12.375402,-4.974699,-7.400703,-4.898024,-4.238224,-16.964483,-17.044735,-16.817617,-16.911888,6
944453060,-11.546993,-13.164616,-1.617622,12.355804,-4.964685,-7.391119,-4.842377,-4.187918,-16.944885,-17.024231,-16.794682,-16.886616,6
944455058,-11.505413,-13.136244,-1.630831,12.320828,-4.937291,-7.383537,-4.813337,-4.161263,-16.939592,-17.019701,-16.788054,-16.872168,6
944457056,-11.499453,-13.130999,-1.631546,12.315226,-4.933953,-7.381272,-4.882860,-4.224586,-16.965914,-17.046070,-16.818571,-16.902733,6
944459055,-11.504841,-13.135672,-1.630831,12.320256,-4.937005,-7.383251,-4.890680,-4.233742,-16.972494,-17.053270,-16.825151,-16.911125,6
944461052,-11.504745,-13.133907,-1.629162,12.319326,-4.937792,-7.381535,-4.887867,-4.231071,-16.972780,-17.052603,-16.823816,-16.908979,6
944463050,-11.505747,-13.133574,-1.627827,12.319660,-4.938960,-7.380700,-4.889011,-4.229116,-16.972971,-17.051983,-16.824579,-16.908550,6
944465048,-11.514902,-13.139486,-1.624584,12.327194,-4.945159,-7.382035,-4.894400,-4.232216,-16.973209,-17.052555,-16.825104,-16.911459,6
944467046,-11.528540,-13.148069,-1.619530,12.338305,-4.954505,-7.383800,-4.894018,-4.230070,-16.971636,-17.051315,-16.823244,-16.911030,6
944469044,-11.538124,-13.152933,-1.614809,12.345529,-4.961658,-7.383871,-4.893351,-4.225636,-16.966629,-17.046642,-16.818571,-16.907072,6
944471044,-11.544085,-13.154840,-1.610756,12.349463,-4.966664,-7.382798,-4.889822,-4.222250,-16.963196,-17.042732,-16.814899,-16.904163,6
944473041,-11.547613,-13.155556,-1.607943,12.351584,-4.969835,-7.381749,-4.885864,-4.219580,-16.959858,-17.039251,-16.811705,-16.901159,6
944475038,-11.544371,-13.151836,-1.607466,12.348104,-4.968452,-7.379651,-4.884911,-4.219580,-16.961002,-17.040300,-16.812658,-16.900921,6
944477036,-11.541319,-13.147926,-1.606607,12.344623,-4.967356,-7.377267,-4.891205,-4.227686,-16.966534,-17.045593,-16.817856,-16.906738,6
944479034,-11.542892,-13.150454,-1.607561,12.346673,-4.967666,-7.379007,-4.897165,-4.235315,-16.971540,-17.051220,-16.823387,-16.912794,6
944481032,-11.545134,-13.155651,-1.610518,12.350392,-4.967308,-7.383084,-4.900503,-4.242039,-16.974163,-17.054558,-16.826487,-16.917038,6
944483030,-11.549902,-13.160992,-1.611090,12.355447,-4.969406,-7.386041,-4.902220,-4.245949,-16.976309,-17.055798,-16.828394,-16.919231,6
944485028,-11.555147,-13.164854,-1.609707,12.360001,-4.972720,-7.387280,-4.901075,-4.246283,-16.974783,-17.055130,-16.827869,-16.918135,6
944487026,-11.565208,-13.169146,-1.603937,12.367177,-4.980636,-7.386541,-4.897738,-4.242992,-16.973734,-17.052937,-16.825390,-16.916990,6
944489024,-11.575508,-13.169861,-1.594353,12.372684,-4.990578,-7.382107,-4.892159,-4.234362,-16.968966,-17.048120,-16.820860,-16.912270,6
944491022,-11.578512,-13.171387,-1.592875,12.374949,-4.992819,-7.382131,-4.888487,-4.227114,-16.964245,-17.044163,-16.816378,-16.909170,6
944493020,-11.575508,-13.168907,-1.593399,12.372208,-4.991055,-7.381153,-4.884911,-4.224300,-16.960001,-17.040300,-16.812611,-16.905880,6
944495018,-11.569357,-13.166237,-1.596880,12.367797,-4.986238,-7.381558,-4.891825,-4.231405,-16.963816,-17.043734,-16.816092,-16.908741,6
944497016,-11.557722,-13.161325,-1.603603,12.359524,-4.977059,-7.382464,-4.893351,-4.234076,-16.966438,-17.046261,-16.818810,-16.911697,6
944499014,-11.548471,-13.153791,-1.605320,12.351131,-4.971576,-7.379556,-4.891586,-4.232979,-16.968918,-17.048311,-16.820908,-16.913986,6
944501012,-11.546803,-13.155937,-1.609135,12.351370,-4.968834,-7.382536,-4.899883,-4.241657,-16.973066,-17.052603,-16.825628,-16.918182,6
944503010,-11.548948,-13.158894,-1.609945,12.353921,-4.969501,-7.384419,-4.902983,-4.244804,-16.975212,-17.055225,-16.827917,-16.920853,6
944505007,-11.552143,-13.162470,-1.610327,12.357306,-4.970908,-7.386398,-4.904556,-4.242754,-16.974783,-17.053986,-16.826439,-16.919947,6
944507005,-11.557627,-13.165760,-1.608133,12.361693,-4.974747,-7.386947,-4.904795,-4.242086,-16.972160,-17.051554,-16.824055,-16.917896,6
944509003,-11.563158,-13.168240,-1.605082,12.365699,-4.979038,-7.386661,-4.902744,-4.236078,-16.967297,-17.047071,-16.819811,-16.913128,6
944511002,-11.564779,-13.168669,-1.603889,12.366724,-4.980445,-7.386279,-4.898882,-4.231787,-16.962719,-17.042875,-16.816139,-16.909456,6
944512999,-11.561966,-13.167191,-1.605225,12.364578,-4.978371,-7.386208,-4.895163,-4.229641,-16.960478,-17.039633,-16.812658,-16.906357,6
944514997,-11.555576,-13.164711,-1.609135,12.360144,-4.973221,-7.386923,-4.896212,-4.231739,-16.961908,-17.041016,-16.813850,-16.907167,6
944516995,-11.553812,-13.167953,-1.614141,12.360883,-4.969835,-7.391047,-4.906511,-4.245234,-16.968203,-17.047739,-16.820002,-16.913605,6
944518993,-11.548138,-13.169241,-1.621103,12.358689,-4.963517,-7.395172,-4.910755,-4.252481,-16.974020,-17.053795,-16.826677,-16.919947,6
944520991,-11.543846,-13.169193,-1.625347,12.356520,-4.959249,-7.397270,-4.913521,-4.256344,-16.977882,-17.057276,-16.830254,-16.923857,6
944522989,-11.541224,-13.170910,-1.629686,12.356067,-4.955769,-7.400298,-4.916859,-4.257917,-16.979980,-17.059517,-16.832304,-16.925764,6
944524987,-11.539412,-13.172007,-1.632595,12.355709,-4.953408,-7.402301,-4.917812,-4.257393,-16.977978,-17.057943,-16.830397,-16.924715,6
944526985,-11.542273,-13.171959,-1.629686,12.357116,-4.956293,-7.400823,-4.912949,-4.252768,-16.973925,-17.054033,-16.825390,-16.920853,6
944528983,-11.540651,-13.163757,-1.623106,12.352204,-4.958773,-7.393432,-4.897499,-4.236603,-16.964245,-17.044401,-16.814756,-16.908693,6
944530982,-11.550617,-13.168383,-1.617765,12.359500,-4.966426,-7.393074,-4.901838,-4.235125,-16.962004,-17.041159,-16.814041,-16.907167,6
944532979,-11.556244,-13.170338,-1.614094,12.363291,-4.971075,-7.392216,-4.901361,-4.233980,-16.960478,-17.040110,-16.812706,-16.905260,6
944534977,-11.554909,-13.171005,-1.616096,12.362957,-4.969406,-7.393551,-4.905319,-4.239368,-16.964006,-17.043591,-16.816711,-16.909695,6
944536975,-11.551905,-13.168907,-1.617002,12.360406,-4.967451,-7.392955,-4.907465,-4.245901,-16.969013,-17.048073,-16.820765,-16.914845,6
944538973,-11.553812,-13.172007,-1.618195,12.362909,-4.967809,-7.395101,-4.909945,-4.253340,-16.973209,-17.052698,-16.826010,-16.920137,6
944540972,-11.555386,-13.174057,-1.618671,12.364721,-4.968357,-7.396364,-4.912043,-4.259491,-16.975498,-17.055798,-16.829348,-16.922951,6
944542969,-11.553812,-13.171291,-1.617479,12.362552,-4.968166,-7.394385,-4.907846,-4.255199,-16.975451,-17.055464,-16.828156,-16.921043,6
944544967,-11.551952,-13.167810,-1.615858,12.359881,-4.968047,-7.391834,-4.906273,-4.249859,-16.973829,-17.052746,-16.825390,-16.918993,6
944546965,-11.559582,-13.172483,-1.612902,12.366033,-4.973340,-7.392693,-4.910517,-4.248619,-16.972876,-17.052126,-16.824532,-16.918564,6
944548963,-11.565733,-13.173628,-1.607895,12.369680,-4.978919,-7.390761,-4.910183,-4.242468,-16.967487,-17.047119,-16.820145,-16.914463,6
944550962,-11.569738,-13.174963,-1.605225,12.372351,-4.982257,-7.390094,-4.907799,-4.236364,-16.963482,-17.043066,-16.816044,-16.910839,6
944552959,-11.569929,-13.174391,-1.604462,12.372160,-4.982734,-7.389426,-4.904509,-4.233170,-16.961718,-17.041254,-16.813660,-16.909456,6
944554959,-11.558723,-13.166714,-1.607990,12.362719,-4.975367,-7.387352,-4.893255,-4.222536,-16.959620,-17.038631,-16.810369,-16.904068,6
944556958,-11.517382,-13.132858,-1.615477,12.325120,-4.950953,-7.374167,-4.820061,-4.156685,-16.938400,-17.017698,-16.786385,-16.869164,6
944558956,-11.501026,-13.122606,-1.621580,12.311816,-4.939723,-7.372093,-4.875946,-4.205704,-16.958809,-17.038441,-16.809273,-16.885710,6
944560953,-11.505890,-13.125372,-1.619482,12.315631,-4.943204,-7.372427,-4.910755,-4.237175,-16.971302,-17.051077,-16.823292,-16.902304,6
944562951,-11.514616,-13.131666,-1.617050,12.323141,-4.948783,-7.374358,-4.912758,-4.240084,-16.974163,-17.053318,-16.825771,-16.906595,6
944564949,-11.520767,-13.135290,-1.614523,12.328029,-4.953122,-7.374907,-4.912472,-4.239893,-16.973543,-17.052937,-16.825628,-16.907597,6
944566947,-11.526155,-13.141298,-1.615143,12.333727,-4.955506,-7.378221,-4.913759,-4.238081,-16.971779,-17.051268,-16.824007,-16.907740,6
944568945,-11.537743,-13.146830,-1.609087,12.342286,-4.964328,-7.377958,-4.910517,-4.235029,-16.967010,-17.046022,-16.818810,-16.904593,6
944570946,-11.547041,-13.150644,-1.603603,12.348843,-4.971719,-7.377124,-4.905510,-4.230928,-16.963053,-17.042923,-16.815329,-16.902161,6
944572942,-11.550617,-13.151741,-1.601124,12.351179,-4.974747,-7.376432,-4.904032,-4.230690,-16.961050,-17.041302,-16.812754,-16.900682,6
944574939,-11.549425,-13.151407,-1.601982,12.350416,-4.973722,-7.376695,-4.898024,-4.226398,-16.961527,-17.041063,-16.812849,-16.900253,6
944576937,-11.542511,-13.143587,-1.601076,12.343049,-4.970717,-7.372332,-4.895163,-4.224157,-16.962576,-17.041969,-16.814375,-16.899443,6
944578935,-11.544037,-13.146591,-1.602554,12.345314,-4.970741,-7.374573,-4.903984,-4.236555,-16.969633,-17.048931,-16.821909,-16.907024,6
944580933,-11.545944,-13.149595,-1.603651,12.347770,-4.971147,-7.376623,-4.906988,-4.241991,-16.972733,-17.052364,-16.824722,-16.911840,6
944582931,-11.550856,-13.154078,-1.603222,12.352467,-4.973817,-7.378650,-4.907131,-4.243660,-16.974545,-17.053747,-16.825724,-16.914701,6
944584929,-11.552048,-13.154459,-1.602411,12.353253,-4.974818,-7.378435,-4.905605,-4.243898,-16.974258,-17.054033,-16.825867,-16.915369,6
944586927,-11.555576,-13.157225,-1.601648,12.356400,-4.976964,-7.379436,-4.903746,-4.242516,-16.972494,-17.052269,-16.825151,-16.913986,6
944588925,-11.557913,-13.156891,-1.598978,12.357402,-4.979467,-7.377934,-4.898930,-4.233885,-16.967344,-17.047262,-16.819715,-16.909409,6
944590923,-11.562300,-13.158512,-1.596212,12.360406,-4.983044,-7.377362,-4.898691,-4.228306,-16.961765,-17.042017,-16.814327,-16.904593,6
944592921,-11.562157,-13.159180,-1.597023,12.360668,-4.982567,-7.378101,-4.897976,-4.225206,-16.958427,-17.038679,-16.810703,-16.900873,6
944594919,-11.553717,-13.157845,-1.604128,12.355781,-4.974794,-7.380986,-4.900551,-4.228830,-16.960049,-17.040491,-16.811895,-16.902447,6
944596916,-11.545849,-13.156509,-1.610661,12.351179,-4.967594,-7.383585,-4.907894,-4.238462,-16.965532,-17.045641,-16.817522,-16.908169,6
944598914,-11.544180,-13.158035,-1.613855,12.351108,-4.965162,-7.385945,-4.912329,-4.244184,-16.971827,-17.051506,-16.823578,-16.914320,6
944600912,-11.544371,-13.156605,-1.612234,12.350488,-4.966068,-7.384419,-4.912472,-4.247046,-16.974306,-17.054510,-16.826725,-16.917658,6
944602910,-11.544895,-13.158178,-1.613283,12.351537,-4.965806,-7.385731,-4.912949,-4.250479,-16.975975,-17.056274,-16.828394,-16.919565,6
944604908,-11.541700,-13.158417,-1.616716,12.350059,-4.962492,-7.387567,-4.912281,-4.250431,-16.976070,-17.056036,-16.827965,-16.919708,6
