timestamp_us,I_mV,II_mV,III_mV,aVR_mV,aVL_mV,aVF_mV,V1_mV,V2_mV,V3_mV,V4_mV,V5_mV,V6_mV,gain
199532792,-5.447912,7.399511,12.847424,-0.975800,-9.147668,10.123467,-400.000000,-400.000000,-400.000000,-400.000000,-400.000000,-400.000000,6
199534790,-5.432892,7.416487,12.849379,-0.991797,-9.141135,10.132933,-400.000000,-400.000000,-400.000000,-400.000000,-400.000000,-400.000000,6
199536787,-5.427217,7.428646,12.855864,-1.000714,-9.141541,10.142255,-400.000000,-400.000000,-400.000000,-400.000000,-400.000000,-400.000000,6
199538784,-5.433178,7.436609,12.869787,-1.001716,-9.151483,10.153198,-400.000000,-400.000000,-400.000000,-400.000000,-400.000000,-400.000000,6
199540781,-5.434608,7.442665,12.877274,-1.004028,-9.155941,10.159969,-400.000000,-400.000000,-400.000000,-400.000000,-400.000000,-400.000000,6
199542778,-5.447197,7.447767,12.894964,-1.000285,-9.171081,10.171366,-400.000000,-400.000000,-400.000000,-400.000000,-400.000000,-400.000000,6
199544775,-5.466175,7.440805,12.906981,-0.987315,-9.186578,10.173893,-400.000000,-400.000000,-400.000000,-400.000000,-400.000000,-400.000000,6
199546772,-5.475760,7.427835,12.903595,-0.976038,-9.189677,10.165715,-400.000000,-400.000000,-400.000000,-400.000000,-400.000000,-400.000000,6
199548769,-5.499649,7.405472,12.905121,-0.952911,-9.202385,10.155296,-400.000000,-400.000000,-400.000000,-400.000000,-400.000000,-400.000000,6
199550766,-5.521822,7.386637,12.908459,-0.932407,-9.215140,10.147548,-400.000000,-400.000000,-400.000000,-400.000000,-400.000000,-400.000000,6
199552763,-5.529499,7.394695,12.924194,-0.932598,-9.226847,10.159445,-400.000000,-400.000000,-400.000000,-400.000000,-400.000000,-400.000000,6
199554761,-5.518055,7.407761,12.925816,-0.944853,-9.221935,10.166788,-400.000000,-400.000000,-400.000000,-400.000000,-400.000000,-400.000000,6
199556758,-5.485010,7.439089,12.924099,-0.977039,-9.204555,10.181594,-400.000000,-400.000000,-400.000000,-400.000000,-400.000000,-400.000000,6
199558755,-5.443621,7.480383,12.924004,-1.018381,-9.183812,10.202193,-400.000000,-400.000000,-400.000000,-400.000000,-400.000000,-400.000000,6
199560752,-5.417109,7.492733,12.909842,-1.037812,-9.163475,10.201287,-400.000000,-400.000000,-400.000000,-400.000000,-400.000000,-400.000000,6
199562749,-5.410957,7.484579,12.895536,-1.036811,-9.153247,10.190058,-400.000000,-400.000000,-400.000000,-400.000000,-400.000000,-400.000000,6
199564746,-5.416965,7.454348,12.871313,-1.018691,-9.144139,10.162830,-400.000000,-400.000000,-400.000000,-400.000000,-400.000000,-400.000000,6
199566743,-5.434561,7.410812,12.845373,-0.988126,-9.139967,10.128093,-400.000000,-400.000000,-400.000000,-400.000000,-400.000000,-400.000000,6
199568740,-5.437279,7.390404,12.827682,-0.976562,-9.132481,10.109043,-400.000000,-400.000000,-400.000000,-400.000000,-400.000000,-400.000000,6
199570737,-5.440664,7.392502,12.833166,-0.975919,-9.136915,10.112834,-400.000000,-400.000000,-400.000000,-400.000000,-400.000000,-400.000000,6
199572734,-5.454779,7.415247,12.870026,-0.980234,-9.162402,10.142636,-400.000000,-400.000000,-400.000000,-400.000000,-400.000000,-400.000000,6
199574731,-5.450344,7.449818,12.900162,-0.999737,-9.175253,10.174990,-400.000000,-400.000000,-400.000000,-400.000000,-400.000000,-400.000000,6
199576728,-5.442142,7.465506,12.907648,-1.011682,-9.174895,10.186577,-400.000000,-400.000000,-400.000000,-400.000000,-400.000000,-400.000000,6
199578725,-5.418158,7.457352,12.875509,-1.019597,-9.146833,10.166430,-400.000000,-400.000000,-400.000000,-400.000000,-400.000000,-400.000000,6
199580722,-5.413151,7.448959,12.862110,-1.017904,-9.137630,10.155535,-400.000000,-400.000000,-400.000000,-400.000000,-400.000000,-400.000000,6
199582721,-5.405760,7.454872,12.860632,-1.024556,-9.133196,10.157752,-400.000000,-400.000000,-400.000000,-400.000000,-400.000000,-400.000000,6
199584716,-5.397034,7.456684,12.853718,-1.029825,-9.125376,10.155201,-400.000000,-400.000000,-400.000000,-400.000000,-400.000000,-400.000000,6
199586713,-5.418110,7.441759,12.859869,-1.011825,-9.138989,10.150814,-400.000000,-400.000000,-400.000000,-400.000000,-400.000000,-400.000000,6
199588711,-5.431366,7.424831,12.856197,-0.996733,-9.143782,10.140514,-400.000000,-400.000000,-400.000000,-400.000000,-400.000000,-400.000000,6
199590707,-5.428171,7.417870,12.846041,-0.994849,-9.137106,10.131955,-400.000000,-400.000000,-400.000000,-400.000000,-400.000000,-400.000000,6
199592705,-5.422878,7.419729,12.842607,-0.998425,-9.132743,10.131168,-400.000000,-400.000000,-400.000000,-400.000000,-400.000000,-400.000000,6
199594704,-5.412674,7.427359,12.840033,-1.007342,-9.126353,10.133696,-400.000000,-400.000000,-400.000000,-400.000000,-400.000000,-400.000000,6
199596702,-5.405045,7.427883,12.832928,-1.011419,-9.118986,10.130405,-400.000000,-400.000000,-400.000000,-400.000000,-400.000000,-400.000000,6
199598699,-5.411577,7.433510,12.845087,-1.010966,-9.128332,10.139298,-400.000000,-400.000000,-400.000000,-400.000000,-400.000000,-400.000000,6
199600696,-5.420828,7.451963,12.872791,-1.015568,-9.146810,10.162377,-400.000000,-400.000000,-400.000000,-400.000000,-400.000000,-400.000000,6
199602693,-5.449247,7.472992,12.922239,-1.011872,-9.185743,10.197616,-400.000000,-400.000000,-400.000000,-400.000000,-400.000000,-400.000000,6
199604690,-5.474520,7.464457,12.938976,-0.994968,-9.206748,10.201716,-400.000000,-400.000000,-400.000000,-400.000000,-400.000000,-400.000000,6
199606687,-5.481291,7.450294,12.931585,-0.984502,-9.206438,10.190940,-400.000000,-400.000000,-400.000000,-400.000000,-400.000000,-400.000000,6
199608684,-5.482197,7.432365,12.914562,-0.975084,-9.198380,10.173464,-400.000000,-400.000000,-400.000000,-400.000000,-400.000000,-400.000000,6
199610681,-5.466175,7.418585,12.884760,-0.976205,-9.175467,10.151672,-400.000000,-400.000000,-400.000000,-400.000000,-400.000000,-400.000000,6
199612680,-5.459833,7.413912,12.873745,-0.977039,-9.166789,10.143828,-400.000000,-400.000000,-400.000000,-400.000000,-400.000000,-400.000000,6
199614675,-5.443525,7.434082,12.877607,-0.995278,-9.160566,10.155845,-400.000000,-400.000000,-400.000000,-400.000000,-400.000000,-400.000000,6
199616672,-5.428410,7.457209,12.885618,-1.014400,-9.157014,10.171413,-400.000000,-400.000000,-400.000000,-400.000000,-400.000000,-400.000000,6
199618670,-5.425596,7.465076,12.890673,-1.019740,-9.158134,10.177875,-400.000000,-400.000000,-400.000000,-400.000000,-400.000000,-400.000000,6
199620667,-5.425787,7.462406,12.888193,-1.018310,-9.156990,10.175300,-400.000000,-400.000000,-400.000000,-400.000000,-400.000000,-400.000000,6
199622664,-5.428600,7.468176,12.896776,-1.019788,-9.162688,10.182476,-400.000000,-400.000000,-400.000000,-400.000000,-400.000000,-400.000000,6
199624661,-5.438519,7.476044,12.914562,-1.018763,-9.176540,10.195303,-400.000000,-400.000000,-400.000000,-400.000000,-400.000000,-400.000000,6
199626658,-5.442619,7.461023,12.903643,-1.009202,-9.173131,10.182333,-400.000000,-400.000000,-400.000000,-400.000000,-400.000000,-400.000000,6
199628655,-5.452919,7.434845,12.887764,-0.990963,-9.170341,10.161304,-400.000000,-400.000000,-400.000000,-400.000000,-400.000000,-400.000000,6
199630652,-5.468798,7.427406,12.896204,-0.979304,-9.182501,10.161805,-400.000000,-400.000000,-400.000000,-400.000000,-400.000000,-400.000000,6
199632649,-5.479050,7.448626,12.927675,-0.984788,-9.203362,10.188150,-400.000000,-400.000000,-400.000000,-400.000000,-400.000000,-400.000000,6
199634646,-5.473566,7.479095,12.952662,-1.002765,-9.213114,10.215878,-400.000000,-400.000000,-400.000000,-400.000000,-400.000000,-400.000000,6
199636643,-5.468798,7.507563,12.976360,-1.019382,-9.222579,10.241961,-400.000000,-400.000000,-400.000000,-400.000000,-400.000000,-400.000000,6
199638640,-5.478477,7.541752,13.020229,-1.031637,-9.249353,10.280991,-400.000000,-400.000000,-400.000000,-400.000000,-400.000000,-400.000000,6
199640637,-5.466843,7.558012,13.024855,-1.045585,-9.245849,10.291433,-400.000000,-400.000000,-400.000000,-400.000000,-400.000000,-400.000000,6
199642634,-5.439472,7.552671,12.992144,-1.056600,-9.215808,10.272408,-400.000000,-400.000000,-400.000000,-400.000000,-400.000000,-400.000000,6
199644631,-5.437326,7.547855,12.985182,-1.055264,-9.211254,10.266519,-400.000000,-400.000000,-400.000000,-400.000000,-400.000000,-400.000000,6
199646628,-5.457640,7.529402,12.987041,-1.035881,-9.222341,10.258222,-400.000000,-400.000000,-400.000000,-400.000000,-400.000000,-400.000000,6
199648625,-5.483341,7.502985,12.986326,-1.009822,-9.234834,10.244656,-400.000000,-400.000000,-400.000000,-400.000000,-400.000000,-400.000000,6
199650623,-5.468988,7.487965,12.956953,-1.009488,-9.212971,10.222459,-400.000000,-400.000000,-400.000000,-400.000000,-400.000000,-400.000000,6
199652620,-5.430508,7.481480,12.911987,-1.025486,-9.171247,10.196733,-400.000000,-400.000000,-400.000000,-400.000000,-400.000000,-400.000000,6
199654617,-5.382872,7.503319,12.886190,-1.060224,-9.134531,10.194755,-400.000000,-400.000000,-400.000000,-400.000000,-400.000000,-400.000000,6
199656614,-5.349779,7.534647,12.884426,-1.092434,-9.117103,10.209537,-400.000000,-400.000000,-400.000000,-400.000000,-400.000000,-400.000000,6
199658611,-5.343390,7.555676,12.899065,-1.106143,-9.121227,10.227370,-400.000000,-400.000000,-400.000000,-400.000000,-400.000000,-400.000000,6
199660609,-5.337954,7.573652,12.911606,-1.117849,-9.124780,10.242629,-400.000000,-400.000000,-400.000000,-400.000000,-400.000000,-400.000000,6
199662606,-5.332327,7.579517,12.911844,-1.123595,-9.122086,10.245681,-400.000000,-400.000000,-400.000000,-400.000000,-400.000000,-400.000000,6
199664608,-5.345011,7.586432,12.931442,-1.120710,-9.138227,10.258937,-400.000000,-400.000000,-400.000000,-400.000000,-400.000000,-400.000000,6
199666600,-5.357599,7.602072,12.959671,-1.122236,-9.158635,10.280871,-400.000000,-400.000000,-400.000000,-400.000000,-400.000000,-400.000000,6
199668597,-5.366755,7.595205,12.961960,-1.114225,-9.164357,10.278583,-400.000000,-400.000000,-400.000000,-400.000000,-400.000000,-400.000000,6
199670594,-5.388927,7.585669,12.974596,-1.098371,-9.181762,10.280132,-400.000000,-400.000000,-400.000000,-400.000000,-400.000000,-400.000000,6
199672591,-5.389929,7.588434,12.978363,-1.099253,-9.184146,10.283399,-400.000000,-400.000000,-400.000000,-400.000000,-400.000000,-400.000000,6
199674589,-5.370903,7.596827,12.967730,-1.112962,-9.169316,10.282278,-400.000000,-400.000000,-400.000000,-400.000000,-400.000000,-400.000000,6
199676586,-5.353022,7.608843,12.961864,-1.127911,-9.157443,10.285354,-400.000000,-400.000000,-400.000000,-400.000000,-400.000000,-400.000000,6
199678584,-5.342054,7.611942,12.953997,-1.134944,-9.148026,10.282969,-400.000000,-400.000000,-400.000000,-400.000000,-400.000000,-400.000000,6
199680580,-5.340052,7.598066,12.938118,-1.129007,-9.139085,10.268092,-400.000000,-400.000000,-400.000000,-400.000000,-400.000000,-400.000000,6
199682577,-5.334568,7.580566,12.915134,-1.122999,-9.124851,10.247850,-400.000000,-400.000000,-400.000000,-400.000000,-400.000000,-400.000000,6
199684574,-5.337095,7.555962,12.893057,-1.109433,-9.115076,10.224509,-400.000000,-400.000000,-400.000000,-400.000000,-400.000000,-400.000000,6
199686571,-5.382013,7.517815,12.899828,-1.067901,-9.140921,10.208821,-400.000000,-400.000000,-400.000000,-400.000000,-400.000000,-400.000000,6
199688570,-5.400085,7.490873,12.890959,-1.045394,-9.145522,10.190916,-400.000000,-400.000000,-400.000000,-400.000000,-400.000000,-400.000000,6
199690566,-5.426121,7.473040,12.899160,-1.023459,-9.162641,10.186100,-400.000000,-400.000000,-400.000000,-400.000000,-400.000000,-400.000000,6
199692563,-5.441523,7.451391,12.892914,-1.004934,-9.167218,10.172153,-400.000000,-400.000000,-400.000000,-400.000000,-400.000000,-400.000000,6
199694562,-5.449343,7.454729,12.904072,-1.002693,-9.176707,10.179400,-400.000000,-400.000000,-400.000000,-400.000000,-400.000000,-400.000000,6
199696557,-5.447483,7.475996,12.923479,-1.014256,-9.185481,10.199738,-400.000000,-400.000000,-400.000000,-400.000000,-400.000000,-400.000000,6
199698558,-5.445576,7.490587,12.936163,-1.022506,-9.190869,10.213375,-400.000000,-400.000000,-400.000000,-400.000000,-400.000000,-400.000000,6
199700555,-5.443335,7.483435,12.926769,-1.020050,-9.185052,10.205102,-400.000000,-400.000000,-400.000000,-400.000000,-400.000000,-400.000000,6
199702552,-5.431700,7.470798,12.902498,-1.019549,-9.167099,10.186648,-400.000000,-400.000000,-400.000000,-400.000000,-400.000000,-400.000000,6
199704549,-5.439329,7.445717,12.885046,-1.003194,-9.162188,10.165381,-400.000000,-400.000000,-400.000000,-400.000000,-400.000000,-400.000000,6
199706546,-5.451155,7.419825,12.870979,-0.984335,-9.161067,10.145402,-400.000000,-400.000000,-400.000000,-400.000000,-400.000000,-400.000000,6
199708543,-5.490923,7.408667,12.899590,-0.958872,-9.195256,10.154128,-400.000000,-400.000000,-400.000000,-400.000000,-400.000000,-400.000000,6
199710540,-5.516624,7.406616,12.923241,-0.944996,-9.219933,10.164928,-400.000000,-400.000000,-400.000000,-400.000000,-400.000000,-400.000000,6
199712540,-5.523396,7.401896,12.925291,-0.939250,-9.224343,10.163593,-400.000000,-400.000000,-400.000000,-400.000000,-400.000000,-400.000000,6
199714535,-5.516195,7.409143,12.925339,-0.946474,-9.220767,10.167241,-400.000000,-400.000000,-400.000000,-400.000000,-400.000000,-400.000000,6
199716532,-5.513096,7.427645,12.940741,-0.957274,-9.226918,10.184193,-400.000000,-400.000000,-400.000000,-400.000000,-400.000000,-400.000000,6
199718529,-5.509567,7.435942,12.945509,-0.963187,-9.227538,10.190725,-400.000000,-400.000000,-400.000000,-400.000000,-400.000000,-400.000000,6
199720526,-5.495548,7.438183,12.933731,-0.971317,-9.214640,10.185957,-400.000000,-400.000000,-400.000000,-400.000000,-400.000000,-400.000000,6
199722524,-5.472612,7.440186,12.912798,-0.983787,-9.192705,10.176492,-400.000000,-400.000000,-400.000000,-400.000000,-400.000000,-400.000000,6
199724521,-5.460072,7.433033,12.893105,-0.986481,-9.176588,10.163069,-400.000000,-400.000000,-400.000000,-400.000000,-400.000000,-400.000000,6
199726518,-5.449581,7.405567,12.855148,-0.977993,-9.152365,10.130358,-400.000000,-400.000000,-400.000000,-400.000000,-400.000000,-400.000000,6
199728515,-5.431509,7.387686,12.819195,-0.978088,-9.125352,10.103440,-400.000000,-400.000000,-400.000000,-400.000000,-400.000000,-400.000000,6
199730512,-5.409193,7.388258,12.797451,-0.989532,-9.103322,10.092854,-400.000000,-400.000000,-400.000000,-400.000000,-400.000000,-400.000000,6
199732510,-5.383444,7.392311,12.775755,-1.004434,-9.079599,10.084033,-400.000000,-400.000000,-400.000000,-400.000000,-400.000000,-400.000000,6
199734507,-5.362797,7.399988,12.762785,-1.018596,-9.062791,10.081387,-400.000000,-400.000000,-400.000000,-400.000000,-400.000000,-400.000000,6
199736504,-5.341053,7.407570,12.748623,-1.033258,-9.044838,10.078096,-400.000000,-400.000000,-400.000000,-400.000000,-400.000000,-400.000000,6
199738501,-5.354118,7.417107,12.771225,-1.031494,-9.062672,10.094166,-400.000000,-400.000000,-400.000000,-400.000000,-400.000000,-400.000000,6
199740498,-5.380917,7.418299,12.799215,-1.018691,-9.090066,10.108757,-400.000000,-400.000000,-400.000000,-400.000000,-400.000000,-400.000000,6
199742495,-5.390215,7.424068,12.814283,-1.016927,-9.102249,10.119176,-400.000000,-400.000000,-400.000000,-400.000000,-400.000000,-400.000000,6
199744493,-5.406475,7.436275,12.842751,-1.014900,-9.124613,10.139513,-400.000000,-400.000000,-400.000000,-400.000000,-400.000000,-400.000000,6
199746490,-5.414534,7.427931,12.842464,-1.006699,-9.128499,10.135198,-400.000000,-400.000000,-400.000000,-400.000000,-400.000000,-400.000000,6
199748487,-5.429840,7.410479,12.840319,-0.990319,-9.135079,10.125399,-400.000000,-400.000000,-400.000000,-400.000000,-400.000000,-400.000000,6
199750484,-5.442619,7.390356,12.832975,-0.973868,-9.137797,10.111666,-400.000000,-400.000000,-400.000000,-400.000000,-400.000000,-400.000000,6
199752483,-5.441952,7.385445,12.827396,-0.971746,-9.134674,10.106421,-400.000000,-400.000000,-400.000000,-400.000000,-400.000000,-400.000000,6
199754479,-5.420113,7.389593,12.809706,-0.984740,-9.114909,10.099649,-400.000000,-400.000000,-400.000000,-400.000000,-400.000000,-400.000000,6
199756476,-5.421638,7.411528,12.833166,-0.994945,-9.127402,10.122347,-400.000000,-400.000000,-400.000000,-400.000000,-400.000000,-400.000000,6
199758473,-5.428886,7.425356,12.854242,-0.998235,-9.141564,10.139799,-400.000000,-400.000000,-400.000000,-400.000000,-400.000000,-400.000000,6
199760470,-5.455446,7.390881,12.846327,-0.967717,-9.150887,10.118604,-400.000000,-400.000000,-400.000000,-400.000000,-400.000000,-400.000000,6
199762467,-5.487776,7.335043,12.822819,-0.923634,-9.155297,10.078931,-400.000000,-400.000000,-400.000000,-400.000000,-400.000000,-400.000000,6
199764464,-5.521584,7.291317,12.812901,-0.884867,-9.167242,10.052109,-400.000000,-400.000000,-400.000000,-400.000000,-400.000000,-400.000000,6
199766461,-5.571079,7.260132,12.831211,-0.844526,-9.201145,10.045671,-400.000000,-400.000000,-400.000000,-400.000000,-400.000000,-400.000000,6
199768459,-5.573845,7.228327,12.802172,-0.827241,-9.188008,10.015249,-400.000000,-400.000000,-400.000000,-400.000000,-400.000000,-400.000000,6
199770456,-5.501556,7.207489,12.709045,-0.852966,-9.105301,9.958267,-400.000000,-400.000000,-400.000000,-400.000000,-400.000000,-400.000000,6
199772453,-5.434608,7.198286,12.632895,-0.881839,-9.033751,9.915590,-400.000000,-400.000000,-400.000000,-400.000000,-400.000000,-400.000000,6
199774450,-5.375004,7.242775,12.617779,-0.933886,-8.996391,9.930277,-400.000000,-400.000000,-400.000000,-400.000000,-400.000000,-400.000000,6
199776447,-5.320787,7.324505,12.645292,-1.001859,-8.983040,9.984899,-400.000000,-400.000000,-400.000000,-400.000000,-400.000000,-400.000000,6
199778444,-5.281162,7.457256,12.738419,-1.088047,-9.009790,10.097837,-400.000000,-400.000000,-400.000000,-400.000000,-400.000000,-400.000000,6
199780441,-5.221796,7.599497,12.821293,-1.188850,-9.021544,10.210395,-400.000000,-400.000000,-400.000000,-400.000000,-400.000000,-400.000000,6
199782438,-5.183125,7.721853,12.904978,-1.269364,-9.044051,10.313416,-400.000000,-400.000000,-400.000000,-400.000000,-400.000000,-400.000000,6
199784435,-5.166960,7.824326,12.991285,-1.328683,-9.079123,10.407805,-400.000000,-400.000000,-400.000000,-400.000000,-400.000000,-400.000000,6
199786432,-5.180693,7.898521,13.079214,-1.358914,-9.129953,10.488868,-400.000000,-400.000000,-400.000000,-400.000000,-400.000000,-400.000000,6
199788430,-5.204010,8.006620,13.210630,-1.401305,-9.207320,10.608625,-400.000000,-400.000000,-400.000000,-400.000000,-400.000000,-400.000000,6
199790426,-5.231094,8.159685,13.390779,-1.464295,-9.310937,10.775232,-400.000000,-400.000000,-400.000000,-400.000000,-400.000000,-400.000000,6
199792424,-5.225372,8.345890,13.571262,-1.560259,-9.398317,10.958576,-400.000000,-400.000000,-400.000000,-400.000000,-400.000000,-400.000000,6
199794421,-5.227852,8.554935,13.782787,-1.663542,-9.505320,11.168861,-400.000000,-400.000000,-400.000000,-400.000000,-400.000000,-400.000000,6
199796418,-5.256367,8.732986,13.989353,-1.738310,-9.622860,11.361170,-400.000000,-400.000000,-400.000000,-400.000000,-400.000000,-400.000000,6
199798415,-5.337715,8.813572,14.151287,-1.737928,-9.744501,11.482430,-400.000000,-400.000000,-400.000000,-400.000000,-400.000000,-400.000000,6
199800413,-5.481148,8.887625,14.368773,-1.703238,-9.924960,11.628199,-400.000000,-400.000000,-400.000000,-400.000000,-400.000000,-400.000000,6
199802410,-5.603075,8.863974,14.467049,-1.630449,-10.035062,11.665511,-400.000000,-400.000000,-400.000000,-400.000000,-400.000000,-400.000000,6
199804409,-5.705261,8.782673,14.487934,-1.538706,-10.096598,11.635303,-400.000000,-400.000000,-400.000000,-400.000000,-400.000000,-400.000000,6
199806406,-5.812502,8.689022,14.501524,-1.438260,-10.157013,11.595273,-400.000000,-400.000000,-400.000000,-400.000000,-400.000000,-400.000000,6
199808404,-5.936956,8.461285,14.398241,-1.262164,-10.167599,11.429763,-400.000000,-400.000000,-400.000000,-400.000000,-400.000000,-400.000000,6
199810401,-6.052876,8.126783,14.179659,-1.036954,-10.116267,11.153221,-400.000000,-400.000000,-400.000000,-400.000000,-400.000000,-400.000000,6
199812400,-6.122112,7.910872,14.032984,-0.894380,-10.077548,10.971928,-400.000000,-400.000000,-400.000000,-400.000000,-400.000000,-400.000000,6
199814395,-6.151724,7.780457,13.932180,-0.814366,-10.041952,10.856318,-400.000000,-400.000000,-400.000000,-400.000000,-400.000000,-400.000000,6
199816392,-6.134939,7.629442,13.764381,-0.747252,-9.949660,10.696912,-400.000000,-400.000000,-400.000000,-400.000000,-400.000000,-400.000000,6
199818389,-6.100464,7.430267,13.530731,-0.664902,-9.815598,10.480499,-400.000000,-400.000000,-400.000000,-400.000000,-400.000000,-400.000000,6
199820387,-6.056643,7.314539,13.371181,-0.628948,-9.713912,10.342860,-400.000000,-400.000000,-400.000000,-400.000000,-400.000000,-400.000000,6
199822384,-6.012630,7.240963,13.253593,-0.614166,-9.633112,10.247278,-400.000000,-400.000000,-400.000000,-400.000000,-400.000000,-400.000000,6
199824381,-5.975342,7.196426,13.171768,-0.610542,-9.573555,10.184097,-400.000000,-400.000000,-400.000000,-400.000000,-400.000000,-400.000000,6
199826378,-5.956745,7.140684,13.097429,-0.591969,-9.527087,10.119057,-400.000000,-400.000000,-400.000000,-400.000000,-400.000000,-400.000000,6
199828376,-5.939102,7.097387,13.036489,-0.579143,-9.487796,10.066938,-400.000000,-400.000000,-400.000000,-400.000000,-400.000000,-400.000000,6
199830373,-5.878401,7.106113,12.984514,-0.613856,-9.431458,10.045314,-400.000000,-400.000000,-400.000000,-400.000000,-400.000000,-400.000000,6
199832370,-5.807686,7.131624,12.939310,-0.661969,-9.373498,10.035467,-400.000000,-400.000000,-400.000000,-400.000000,-400.000000,-400.000000,6
199834367,-5.737114,7.173920,12.911034,-0.718403,-9.324074,10.042477,-400.000000,-400.000000,-400.000000,-400.000000,-400.000000,-400.000000,6
199836364,-5.672359,7.253218,12.925577,-0.790429,-9.298968,10.089397,-400.000000,-400.000000,-400.000000,-400.000000,-400.000000,-400.000000,6
199838361,-5.600691,7.350588,12.951279,-0.874949,-9.275985,10.150933,-400.000000,-400.000000,-400.000000,-400.000000,-400.000000,-400.000000,6
199840359,-5.542469,7.431173,12.973642,-0.944352,-9.258056,10.202408,-400.000000,-400.000000,-400.000000,-400.000000,-400.000000,-400.000000,6
199842356,-5.515862,7.455397,12.971258,-0.969768,-9.243560,10.213327,-400.000000,-400.000000,-400.000000,-400.000000,-400.000000,-400.000000,6
199844353,-5.501413,7.432938,12.934351,-0.965762,-9.217882,10.183644,-400.000000,-400.000000,-400.000000,-400.000000,-400.000000,-400.000000,6
199846350,-5.490732,7.413197,12.903929,-0.961232,-9.197330,10.158563,-400.000000,-400.000000,-400.000000,-400.000000,-400.000000,-400.000000,6
199848347,-5.479050,7.402372,12.881422,-0.961661,-9.180236,10.141897,-400.000000,-400.000000,-400.000000,-400.000000,-400.000000,-400.000000,6
199850344,-5.470610,7.402420,12.873030,-0.965905,-9.171820,10.137725,-400.000000,-400.000000,-400.000000,-400.000000,-400.000000,-400.000000,6
199852342,-5.456448,7.414341,12.870789,-0.978947,-9.163618,10.142565,-400.000000,-400.000000,-400.000000,-400.000000,-400.000000,-400.000000,6
199854339,-5.439281,7.424974,12.864256,-0.992846,-9.151769,10.144615,-400.000000,-400.000000,-400.000000,-400.000000,-400.000000,-400.000000,6
199856336,-5.444956,7.446003,12.890959,-1.000524,-9.167957,10.168481,-400.000000,-400.000000,-400.000000,-400.000000,-400.000000,-400.000000,6
199858333,-5.462360,7.470083,12.932444,-1.003861,-9.197402,10.201263,-400.000000,-400.000000,-400.000000,-400.000000,-400.000000,-400.000000,6
199860330,-5.476189,7.475996,12.952185,-0.999904,-9.214187,10.214090,-400.000000,-400.000000,-400.000000,-400.000000,-400.000000,-400.000000,6
199862327,-5.480480,7.473755,12.954235,-0.996637,-9.217358,10.213995,-400.000000,-400.000000,-400.000000,-400.000000,-400.000000,-400.000000,6
199864325,-5.484247,7.456684,12.940931,-0.986218,-9.212589,10.198808,-400.000000,-400.000000,-400.000000,-400.000000,-400.000000,-400.000000,6
199866322,-5.493021,7.434988,12.928009,-0.970984,-9.210515,10.181499,-400.000000,-400.000000,-400.000000,-400.000000,-400.000000,-400.000000,6
199868319,-5.484056,7.428122,12.912178,-0.972033,-9.198117,10.170150,-400.000000,-400.000000,-400.000000,-400.000000,-400.000000,-400.000000,6
199870316,-5.461693,7.425022,12.886715,-0.981665,-9.174204,10.155869,-400.000000,-400.000000,-400.000000,-400.000000,-400.000000,-400.000000,6
199872316,-5.434275,7.438326,12.872601,-1.002026,-9.153438,10.155463,-400.000000,-400.000000,-400.000000,-400.000000,-400.000000,-400.000000,6
199874310,-5.398369,7.475424,12.873793,-1.038527,-9.136081,10.174608,-400.000000,-400.000000,-400.000000,-400.000000,-400.000000,-400.000000,6
199876307,-5.379248,7.502270,12.881517,-1.061511,-9.130383,10.191894,-400.000000,-400.000000,-400.000000,-400.000000,-400.000000,-400.000000,6
199878307,-5.380678,7.507849,12.888527,-1.063585,-9.134603,10.198188,-400.000000,-400.000000,-400.000000,-400.000000,-400.000000,-400.000000,6
199880302,-5.393505,7.501507,12.895012,-1.054001,-9.144258,10.198259,-400.000000,-400.000000,-400.000000,-400.000000,-400.000000,-400.000000,6
199882299,-5.399323,7.497501,12.896824,-1.049089,-9.148073,10.197163,-400.000000,-400.000000,-400.000000,-400.000000,-400.000000,-400.000000,6
199884296,-5.394506,7.476044,12.870550,-1.040769,-9.132528,10.173297,-400.000000,-400.000000,-400.000000,-400.000000,-400.000000,-400.000000,6
199886293,-5.373287,7.458639,12.831926,-1.042676,-9.102607,10.145283,-400.000000,-400.000000,-400.000000,-400.000000,-400.000000,-400.000000,6
199888291,-5.362415,7.437849,12.800264,-1.037717,-9.081340,10.119057,-400.000000,-400.000000,-400.000000,-400.000000,-400.000000,-400.000000,6
199890287,-5.361795,7.429075,12.790871,-1.033640,-9.076333,10.109973,-400.000000,-400.000000,-400.000000,-400.000000,-400.000000,-400.000000,6
199892285,-5.363941,7.437658,12.801600,-1.036859,-9.082770,10.119629,-400.000000,-400.000000,-400.000000,-400.000000,-400.000000,-400.000000,6
199894282,-5.353022,7.470989,12.824011,-1.058984,-9.088516,10.147500,-400.000000,-400.000000,-400.000000,-400.000000,-400.000000,-400.000000,6
199896279,-5.340815,7.500792,12.841606,-1.079988,-9.091210,10.171199,-400.000000,-400.000000,-400.000000,-400.000000,-400.000000,-400.000000,6
199898276,-5.351448,7.513428,12.864876,-1.080990,-9.108162,10.189152,-400.000000,-400.000000,-400.000000,-400.000000,-400.000000,-400.000000,6
199900273,-5.374479,7.509518,12.883997,-1.067519,-9.129238,10.196757,-400.000000,-400.000000,-400.000000,-400.000000,-400.000000,-400.000000,6
199902272,-5.372763,7.503700,12.876463,-1.065469,-9.124613,10.190082,-400.000000,-400.000000,-400.000000,-400.000000,-400.000000,-400.000000,6
199904271,-5.383492,7.488298,12.871790,-1.052403,-9.127641,10.180044,-400.000000,-400.000000,-400.000000,-400.000000,-400.000000,-400.000000,6
199906268,-5.396938,7.475996,12.872934,-1.039529,-9.134936,10.174465,-400.000000,-400.000000,-400.000000,-400.000000,-400.000000,-400.000000,6
199908265,-5.404043,7.462072,12.866116,-1.029015,-9.135079,10.164094,-400.000000,-400.000000,-400.000000,-400.000000,-400.000000,-400.000000,6
199910262,-5.418682,7.444668,12.863350,-1.012993,-9.141016,10.154009,-400.000000,-400.000000,-400.000000,-400.000000,-400.000000,-400.000000,6
199912261,-5.418777,7.454920,12.873697,-1.018071,-9.146237,10.164309,-400.000000,-400.000000,-400.000000,-400.000000,-400.000000,-400.000000,6
199914257,-5.403137,7.487965,12.891102,-1.042414,-9.147120,10.189533,-400.000000,-400.000000,-400.000000,-400.000000,-400.000000,-400.000000,6
199916254,-5.410624,7.526541,12.937164,-1.057959,-9.173894,10.231853,-400.000000,-400.000000,-400.000000,-400.000000,-400.000000,-400.000000,6
199918251,-5.407333,7.560539,12.967873,-1.076603,-9.187603,10.264206,-400.000000,-400.000000,-400.000000,-400.000000,-400.000000,-400.000000,6
199920248,-5.382252,7.571125,12.953377,-1.094437,-9.167814,10.262251,-400.000000,-400.000000,-400.000000,-400.000000,-400.000000,-400.000000,6
199922245,-5.359173,7.553577,12.912750,-1.097202,-9.135962,10.233164,-400.000000,-400.000000,-400.000000,-400.000000,-400.000000,-400.000000,6
199924242,-5.361271,7.542896,12.904167,-1.090813,-9.132719,10.223532,-400.000000,-400.000000,-400.000000,-400.000000,-400.000000,-400.000000,6
199926239,-5.363512,7.531452,12.894964,-1.083970,-9.129238,10.213208,-400.000000,-400.000000,-400.000000,-400.000000,-400.000000,-400.000000,6
199928237,-5.363417,7.515621,12.879038,-1.076102,-9.121227,10.197330,-400.000000,-400.000000,-400.000000,-400.000000,-400.000000,-400.000000,6
199930233,-5.353498,7.505322,12.858820,-1.075912,-9.106159,10.182071,-400.000000,-400.000000,-400.000000,-400.000000,-400.000000,-400.000000,6
199932231,-5.343628,7.516575,12.860203,-1.086473,-9.101915,10.188389,-400.000000,-400.000000,-400.000000,-400.000000,-400.000000,-400.000000,6
199934228,-5.341005,7.539320,12.880325,-1.099157,-9.110665,10.209823,-400.000000,-400.000000,-400.000000,-400.000000,-400.000000,-400.000000,6
199936225,-5.325699,7.557344,12.883043,-1.115823,-9.104371,10.220194,-400.000000,-400.000000,-400.000000,-400.000000,-400.000000,-400.000000,6
199938222,-5.323124,7.568598,12.891722,-1.122737,-9.107423,10.230160,-400.000000,-400.000000,-400.000000,-400.000000,-400.000000,-400.000000,6
199940219,-5.305862,7.569885,12.875748,-1.132011,-9.090805,10.222816,-400.000000,-400.000000,-400.000000,-400.000000,-400.000000,-400.000000,6
199942216,-5.296707,7.558012,12.854719,-1.130652,-9.075713,10.206366,-400.000000,-400.000000,-400.000000,-400.000000,-400.000000,-400.000000,6
199944216,-5.303860,7.560587,12.864447,-1.128364,-9.084153,10.212517,-400.000000,-400.000000,-400.000000,-400.000000,-400.000000,-400.000000,6
199946216,-5.323744,7.559252,12.882996,-1.117754,-9.103370,10.221124,-400.000000,-400.000000,-400.000000,-400.000000,-400.000000,-400.000000,6
199948216,-5.342197,7.546854,12.889051,-1.102328,-9.115624,10.217953,-400.000000,-400.000000,-400.000000,-400.000000,-400.000000,-400.000000,6
199950204,-5.341053,7.543945,12.884998,-1.101446,-9.113026,10.214472,-400.000000,-400.000000,-400.000000,-400.000000,-400.000000,-400.000000,6
199952202,-5.344439,7.547140,12.891579,-1.101351,-9.118009,10.219359,-400.000000,-400.000000,-400.000000,-400.000000,-400.000000,-400.000000,6
199954198,-5.336809,7.563257,12.900066,-1.113224,-9.118438,10.231662,-400.000000,-400.000000,-400.000000,-400.000000,-400.000000,-400.000000,6
199956195,-5.311775,7.588863,12.900639,-1.138544,-9.106207,10.244751,-400.000000,-400.000000,-400.000000,-400.000000,-400.000000,-400.000000,6
199958192,-5.302763,7.607365,12.910128,-1.152301,-9.106445,10.258746,-400.000000,-400.000000,-400.000000,-400.000000,-400.000000,-400.000000,6
199960189,-5.295324,7.631922,12.927246,-1.168299,-9.111285,10.279584,-400.000000,-400.000000,-400.000000,-400.000000,-400.000000,-400.000000,6
199962187,-5.294371,7.638741,12.933111,-1.172185,-9.113741,10.285926,-400.000000,-400.000000,-400.000000,-400.000000,-400.000000,-400.000000,6
199964184,-5.288410,7.627296,12.915707,-1.169443,-9.102058,10.271502,-400.000000,-400.000000,-400.000000,-400.000000,-400.000000,-400.000000,6
199966181,-5.273056,7.615662,12.888718,-1.171303,-9.080887,10.252190,-400.000000,-400.000000,-400.000000,-400.000000,-400.000000,-400.000000,6
199968178,-5.281258,7.584429,12.865686,-1.151586,-9.073472,10.225058,-400.000000,-400.000000,-400.000000,-400.000000,-400.000000,-400.000000,6
199970175,-5.272007,7.568693,12.840700,-1.148343,-9.056354,10.204697,-400.000000,-400.000000,-400.000000,-400.000000,-400.000000,-400.000000,6
199972172,-5.266047,7.590342,12.856388,-1.162148,-9.061217,10.223365,-400.000000,-400.000000,-400.000000,-400.000000,-400.000000,-400.000000,6
199974169,-5.260658,7.634115,12.894773,-1.186728,-9.077716,10.264444,-400.000000,-400.000000,-400.000000,-400.000000,-400.000000,-400.000000,6
199976166,-5.246973,7.687140,12.934113,-1.220083,-9.090543,10.310626,-400.000000,-400.000000,-400.000000,-400.000000,-400.000000,-400.000000,6
199978163,-5.242395,7.711697,12.954092,-1.234651,-9.098244,10.332894,-400.000000,-400.000000,-400.000000,-400.000000,-400.000000,-400.000000,6
199980161,-5.229664,7.718325,12.947989,-1.244330,-9.088826,10.333157,-400.000000,-400.000000,-400.000000,-400.000000,-400.000000,-400.000000,6
199982158,-5.232143,7.716036,12.948179,-1.241946,-9.090161,10.332108,-400.000000,-400.000000,-400.000000,-400.000000,-400.000000,-400.000000,6
199984155,-5.243683,7.693672,12.937355,-1.224995,-9.090519,10.315514,-400.000000,-400.000000,-400.000000,-400.000000,-400.000000,-400.000000,6
199986152,-5.240345,7.678366,12.918711,-1.219010,-9.079528,10.298538,-400.000000,-400.000000,-400.000000,-400.000000,-400.000000,-400.000000,6
199988150,-5.244207,7.673454,12.917662,-1.214623,-9.080935,10.295558,-400.000000,-400.000000,-400.000000,-400.000000,-400.000000,-400.000000,6
199990146,-5.260801,7.681274,12.942076,-1.210237,-9.101439,10.311675,-400.000000,-400.000000,-400.000000,-400.000000,-400.000000,-400.000000,6
199992144,-5.256271,7.695770,12.952042,-1.219749,-9.104156,10.323906,-400.000000,-400.000000,-400.000000,-400.000000,-400.000000,-400.000000,6
199994141,-5.244064,7.728291,12.972355,-1.242113,-9.108210,10.350323,-400.000000,-400.000000,-400.000000,-400.000000,-400.000000,-400.000000,6
199996138,-5.220890,7.741404,12.962294,-1.260257,-9.091592,10.351849,-400.000000,-400.000000,-400.000000,-400.000000,-400.000000,-400.000000,6
199998135,-5.183506,7.760525,12.944031,-1.288509,-9.063768,10.352278,-400.000000,-400.000000,-400.000000,-400.000000,-400.000000,-400.000000,6
200000132,-5.151510,7.796812,12.948322,-1.322651,-9.049916,10.372567,-400.000000,-400.000000,-400.000000,-400.000000,-400.000000,-400.000000,6
200002129,-5.132532,7.806683,12.939215,-1.337075,-9.035873,10.372949,-400.000000,-400.000000,-400.000000,-400.000000,-400.000000,-400.000000,6
200004128,-5.138254,7.800484,12.938738,-1.331115,-9.038496,10.369611,-400.000000,-400.000000,-400.000000,-400.000000,-400.000000,-400.000000,6
200006126,-5.149126,7.816124,12.965250,-1.333499,-9.057188,10.390687,-400.000000,-400.000000,-400.000000,-400.000000,-400.000000,-400.000000,6
200008123,-5.146551,7.823610,12.970161,-1.338530,-9.058356,10.396886,-400.000000,-400.000000,-400.000000,-400.000000,-400.000000,-400.000000,6
200010120,-5.134535,7.832241,12.966776,-1.348853,-9.050655,10.399508,-400.000000,-400.000000,-400.000000,-400.000000,-400.000000,-400.000000,6
200012119,-5.115509,7.832479,12.947989,-1.358485,-9.031749,10.390234,-400.000000,-400.000000,-400.000000,-400.000000,-400.000000,-400.000000,6
200014115,-5.117893,7.850075,12.967968,-1.366091,-9.042931,10.409021,-400.000000,-400.000000,-400.000000,-400.000000,-400.000000,-400.000000,6
200016112,-5.114031,7.878065,12.992096,-1.382017,-9.053063,10.435081,-400.000000,-400.000000,-400.000000,-400.000000,-400.000000,-400.000000,6
200018109,-5.106163,7.911587,13.017750,-1.402712,-9.061956,10.464668,-400.000000,-400.000000,-400.000000,-400.000000,-400.000000,-400.000000,6
200020106,-5.107307,7.927561,13.034868,-1.410127,-9.071088,10.481215,-400.000000,-400.000000,-400.000000,-400.000000,-400.000000,-400.000000,6
200022103,-5.116606,7.922077,13.038683,-1.402736,-9.077644,10.480380,-400.000000,-400.000000,-400.000000,-400.000000,-400.000000,-400.000000,6
200024100,-5.118179,7.918310,13.036489,-1.400065,-9.077334,10.477400,-400.000000,-400.000000,-400.000000,-400.000000,-400.000000,-400.000000,6
200026097,-5.114985,7.915640,13.030624,-1.400328,-9.072804,10.473132,-400.000000,-400.000000,-400.000000,-400.000000,-400.000000,-400.000000,6
200028094,-5.089045,7.916546,13.005590,-1.413751,-9.047318,10.461068,-400.000000,-400.000000,-400.000000,-400.000000,-400.000000,-400.000000,6
200030091,-5.079937,7.900095,12.980032,-1.410079,-9.029984,10.440063,-400.000000,-400.000000,-400.000000,-400.000000,-400.000000,-400.000000,6
200032089,-5.075836,7.875395,12.951231,-1.399779,-9.013534,10.413313,-400.000000,-400.000000,-400.000000,-400.000000,-400.000000,-400.000000,6
200034086,-5.074644,7.899094,12.973738,-1.412225,-9.024191,10.436416,-400.000000,-400.000000,-400.000000,-400.000000,-400.000000,-400.000000,6
200036083,-5.066061,7.946777,13.012838,-1.440358,-9.039450,10.479808,-400.000000,-400.000000,-400.000000,-400.000000,-400.000000,-400.000000,6
200038080,-5.074453,7.982922,13.057375,-1.454234,-9.065914,10.520148,-400.000000,-400.000000,-400.000000,-400.000000,-400.000000,-400.000000,6
200040077,-5.067921,8.013439,13.081360,-1.472759,-9.074640,10.547400,-400.000000,-400.000000,-400.000000,-400.000000,-400.000000,-400.000000,6
200042074,-5.064774,8.010912,13.075686,-1.473069,-9.070230,10.543299,-400.000000,-400.000000,-400.000000,-400.000000,-400.000000,-400.000000,6
200044071,-5.080652,7.982302,13.062954,-1.450825,-9.071803,10.522628,-400.000000,-400.000000,-400.000000,-400.000000,-400.000000,-400.000000,6
200046068,-5.115747,7.940149,13.055897,-1.412201,-9.085822,10.498023,-400.000000,-400.000000,-400.000000,-400.000000,-400.000000,-400.000000,6
200048065,-5.131817,7.908106,13.039923,-1.388144,-9.085870,10.474014,-400.000000,-400.000000,-400.000000,-400.000000,-400.000000,-400.000000,6
200050062,-5.148268,7.887554,13.035822,-1.369643,-9.092045,10.461688,-400.000000,-400.000000,-400.000000,-400.000000,-400.000000,-400.000000,6
200052060,-5.169296,7.895041,13.064337,-1.362872,-9.116817,10.479689,-400.000000,-400.000000,-400.000000,-400.000000,-400.000000,-400.000000,6
200054057,-5.179644,7.918119,13.097763,-1.369238,-9.138703,10.507941,-400.000000,-400.000000,-400.000000,-400.000000,-400.000000,-400.000000,6
200056054,-5.182505,7.928419,13.110924,-1.372957,-9.146714,10.519671,-400.000000,-400.000000,-400.000000,-400.000000,-400.000000,-400.000000,6
200058051,-5.180025,7.920265,13.100290,-1.370120,-9.140158,10.510278,-400.000000,-400.000000,-400.000000,-400.000000,-400.000000,-400.000000,6
200060048,-5.191898,7.894182,13.086081,-1.351142,-9.138989,10.490131,-400.000000,-400.000000,-400.000000,-400.000000,-400.000000,-400.000000,6
200062045,-5.203152,7.860470,13.063622,-1.328659,-9.133387,10.462046,-400.000000,-400.000000,-400.000000,-400.000000,-400.000000,-400.000000,6
200064042,-5.217886,7.843733,13.061619,-1.312923,-9.139752,10.452676,-400.000000,-400.000000,-400.000000,-400.000000,-400.000000,-400.000000,6
200066039,-5.233145,7.834864,13.068008,-1.300859,-9.150577,10.451436,-400.000000,-400.000000,-400.000000,-400.000000,-400.000000,-400.000000,6
200068036,-5.244684,7.814932,13.059616,-1.285124,-9.152150,10.437274,-400.000000,-400.000000,-400.000000,-400.000000,-400.000000,-400.000000,6
200070033,-5.251980,7.782125,13.034105,-1.265073,-9.143043,10.408115,-400.000000,-400.000000,-400.000000,-400.000000,-400.000000,-400.000000,6
200072031,-5.249929,7.739830,12.989759,-1.244950,-9.119844,10.364795,-400.000000,-400.000000,-400.000000,-400.000000,-400.000000,-400.000000,6
200074028,-5.245399,7.716703,12.962103,-1.235652,-9.103751,10.339403,-400.000000,-400.000000,-400.000000,-400.000000,-400.000000,-400.000000,6
200076025,-5.229568,7.716656,12.946224,-1.243544,-9.087896,10.331440,-400.000000,-400.000000,-400.000000,-400.000000,-400.000000,-400.000000,6
200078022,-5.232525,7.727528,12.960052,-1.247501,-9.096289,10.343790,-400.000000,-400.000000,-400.000000,-400.000000,-400.000000,-400.000000,6
200080019,-5.253410,7.740784,12.994194,-1.243687,-9.123802,10.367489,-400.000000,-400.000000,-400.000000,-400.000000,-400.000000,-400.000000,6
200082016,-5.264378,7.728481,12.992859,-1.232052,-9.128618,10.360670,-400.000000,-400.000000,-400.000000,-400.000000,-400.000000,-400.000000,6
200084013,-5.282259,7.704306,12.986565,-1.211023,-9.134412,10.345435,-400.000000,-400.000000,-400.000000,-400.000000,-400.000000,-400.000000,6
200086011,-5.320406,7.672024,12.992430,-1.175809,-9.156418,10.332227,-400.000000,-400.000000,-400.000000,-400.000000,-400.000000,-400.000000,6
200088009,-5.362844,7.619190,12.982035,-1.128173,-9.172440,10.300612,-400.000000,-400.000000,-400.000000,-400.000000,-400.000000,-400.000000,6
200090005,-5.409193,7.574511,12.983704,-1.082659,-9.196448,10.279107,-400.000000,-400.000000,-400.000000,-400.000000,-400.000000,-400.000000,6
200092003,-5.411100,7.552814,12.963915,-1.070857,-9.187508,10.258365,-400.000000,-400.000000,-400.000000,-400.000000,-400.000000,-400.000000,6
200093999,-5.400372,7.556915,12.957287,-1.078272,-9.178829,10.257101,-400.000000,-400.000000,-400.000000,-400.000000,-400.000000,-400.000000,6
200095996,-5.401468,7.561302,12.962770,-1.079917,-9.182119,10.262036,-400.000000,-400.000000,-400.000000,-400.000000,-400.000000,-400.000000,6
200097994,-5.390549,7.573271,12.963820,-1.091361,-9.177184,10.268545,-400.000000,-400.000000,-400.000000,-400.000000,-400.000000,-400.000000,6
200099991,-5.380106,7.560301,12.940407,-1.090097,-9.160256,10.250354,-400.000000,-400.000000,-400.000000,-400.000000,-400.000000,-400.000000,6
200101988,-5.363607,7.533836,12.897444,-1.085114,-9.130526,10.215640,-400.000000,-400.000000,-400.000000,-400.000000,-400.000000,-400.000000,6
200103985,-5.358887,7.515240,12.874126,-1.078176,-9.116507,10.194683,-400.000000,-400.000000,-400.000000,-400.000000,-400.000000,-400.000000,6
200105982,-5.374861,7.511139,12.886000,-1.068139,-9.130430,10.198569,-400.000000,-400.000000,-400.000000,-400.000000,-400.000000,-400.000000,6
200107983,-5.378199,7.503939,12.882137,-1.062870,-9.130168,10.193038,-400.000000,-400.000000,-400.000000,-400.000000,-400.000000,-400.000000,6
200109979,-5.386162,7.478523,12.864685,-1.046181,-9.125423,10.171604,-400.000000,-400.000000,-400.000000,-400.000000,-400.000000,-400.000000,6
200111978,-5.390692,7.464457,12.855148,-1.036882,-9.122920,10.159802,-400.000000,-400.000000,-400.000000,-400.000000,-400.000000,-400.000000,6
200113974,-5.385828,7.463360,12.849188,-1.038766,-9.117508,10.156274,-400.000000,-400.000000,-400.000000,-400.000000,-400.000000,-400.000000,6
200115971,-5.394459,7.457924,12.852383,-1.031733,-9.123421,10.155153,-400.000000,-400.000000,-400.000000,-400.000000,-400.000000,-400.000000,6
200117968,-5.392599,7.464314,12.856913,-1.035857,-9.124756,10.160613,-400.000000,-400.000000,-400.000000,-400.000000,-400.000000,-400.000000,6
200119965,-5.406332,7.471514,12.877846,-1.032591,-9.142089,10.174680,-400.000000,-400.000000,-400.000000,-400.000000,-400.000000,-400.000000,6
200121962,-5.434132,7.473040,12.907171,-1.019454,-9.170651,10.190105,-400.000000,-400.000000,-400.000000,-400.000000,-400.000000,-400.000000,6
200123959,-5.458403,7.465315,12.923717,-1.003456,-9.191060,10.194516,-400.000000,-400.000000,-400.000000,-400.000000,-400.000000,-400.000000,6
200125956,-5.471325,7.454538,12.925863,-0.991607,-9.198594,10.190201,-400.000000,-400.000000,-400.000000,-400.000000,-400.000000,-400.000000,6
200127953,-5.487299,7.445431,12.932730,-0.979066,-9.210014,10.189080,-400.000000,-400.000000,-400.000000,-400.000000,-400.000000,-400.000000,6
200129950,-5.482531,7.437849,12.920380,-0.977659,-9.201455,10.179114,-400.000000,-400.000000,-400.000000,-400.000000,-400.000000,-400.000000,6
200131948,-5.457115,7.433701,12.890816,-0.988293,-9.173965,10.162258,-400.000000,-400.000000,-400.000000,-400.000000,-400.000000,-400.000000,6
200133944,-5.445814,7.440090,12.885904,-0.997138,-9.165859,10.162997,-400.000000,-400.000000,-400.000000,-400.000000,-400.000000,-400.000000,6
200135942,-5.433369,7.441711,12.875080,-1.004171,-9.154224,10.158396,-400.000000,-400.000000,-400.000000,-400.000000,-400.000000,-400.000000,6
200137939,-5.433273,7.440424,12.873697,-1.003575,-9.153485,10.157061,-400.000000,-400.000000,-400.000000,-400.000000,-400.000000,-400.000000,6
200139936,-5.418491,7.451391,12.869883,-1.016450,-9.144187,10.160637,-400.000000,-400.000000,-400.000000,-400.000000,-400.000000,-400.000000,6
200141933,-5.408430,7.467937,12.876368,-1.029754,-9.142399,10.172153,-400.000000,-400.000000,-400.000000,-400.000000,-400.000000,-400.000000,6
200143930,-5.428267,7.456398,12.884665,-1.014066,-9.156466,10.170531,-400.000000,-400.000000,-400.000000,-400.000000,-400.000000,-400.000000,6
200145927,-5.452633,7.434464,12.887096,-0.990915,-9.169865,10.160780,-400.000000,-400.000000,-400.000000,-400.000000,-400.000000,-400.000000,6
200147924,-5.452108,7.398796,12.850904,-0.973344,-9.151506,10.124850,-400.000000,-400.000000,-400.000000,-400.000000,-400.000000,-400.000000,6
200149921,-5.448055,7.368135,12.816191,-0.960040,-9.132123,10.092163,-400.000000,-400.000000,-400.000000,-400.000000,-400.000000,-400.000000,6
200151919,-5.463791,7.368231,12.832022,-0.952220,-9.147906,10.100126,-400.000000,-400.000000,-400.000000,-400.000000,-400.000000,-400.000000,6
200153916,-5.449104,7.408381,12.857485,-0.979638,-9.153295,10.132933,-400.000000,-400.000000,-400.000000,-400.000000,-400.000000,-400.000000,6
200155913,-5.431509,7.438993,12.870502,-1.003742,-9.151006,10.154748,-400.000000,-400.000000,-400.000000,-400.000000,-400.000000,-400.000000,6
200157910,-5.435991,7.446671,12.882662,-1.005340,-9.159327,10.164666,-400.000000,-400.000000,-400.000000,-400.000000,-400.000000,-400.000000,6
200159907,-5.438137,7.444286,12.882423,-1.003075,-9.160280,10.163355,-400.000000,-400.000000,-400.000000,-400.000000,-400.000000,-400.000000,6
200161904,-5.433273,7.440615,12.873888,-1.003671,-9.153581,10.157251,-400.000000,-400.000000,-400.000000,-400.000000,-400.000000,-400.000000,6
200163901,-5.439186,7.434416,12.873602,-0.997615,-9.156394,10.154009,-400.000000,-400.000000,-400.000000,-400.000000,-400.000000,-400.000000,6
200165898,-5.438042,7.433939,12.871981,-0.997949,-9.155011,10.152960,-400.000000,-400.000000,-400.000000,-400.000000,-400.000000,-400.000000,6
200167895,-5.429125,7.422638,12.851763,-0.996757,-9.140444,10.137200,-400.000000,-400.000000,-400.000000,-400.000000,-400.000000,-400.000000,6
200169892,-5.428362,7.407951,12.836313,-0.989795,-9.132338,10.122132,-400.000000,-400.000000,-400.000000,-400.000000,-400.000000,-400.000000,6
200171890,-5.438137,7.411146,12.849283,-0.986505,-9.143710,10.130215,-400.000000,-400.000000,-400.000000,-400.000000,-400.000000,-400.000000,6
200173886,-5.429649,7.416439,12.846088,-0.993395,-9.137869,10.131264,-400.000000,-400.000000,-400.000000,-400.000000,-400.000000,-400.000000,6
200175883,-5.428410,7.428026,12.856436,-0.999808,-9.142423,10.142231,-400.000000,-400.000000,-400.000000,-400.000000,-400.000000,-400.000000,6
200177880,-5.451059,7.436800,12.887859,-0.992870,-9.169459,10.162330,-400.000000,-400.000000,-400.000000,-400.000000,-400.000000,-400.000000,6
200179877,-5.455065,7.434511,12.889576,-0.989723,-9.172320,10.162044,-400.000000,-400.000000,-400.000000,-400.000000,-400.000000,-400.000000,6
200181874,-5.460978,7.436419,12.897396,-0.987720,-9.179187,10.166907,-400.000000,-400.000000,-400.000000,-400.000000,-400.000000,-400.000000,6
200183872,-5.451775,7.438469,12.890244,-0.993347,-9.171009,10.164356,-400.000000,-400.000000,-400.000000,-400.000000,-400.000000,-400.000000,6
200185869,-5.438471,7.439184,12.877655,-1.000357,-9.158063,10.158420,-400.000000,-400.000000,-400.000000,-400.000000,-400.000000,-400.000000,6
200187867,-5.441618,7.429266,12.870884,-0.993824,-9.156251,10.150075,-400.000000,-400.000000,-400.000000,-400.000000,-400.000000,-400.000000,6
200189863,-5.457592,7.425499,12.883091,-0.983953,-9.170341,10.154295,-400.000000,-400.000000,-400.000000,-400.000000,-400.000000,-400.000000,6
200191860,-5.457592,7.420826,12.878418,-0.981617,-9.168005,10.149622,-400.000000,-400.000000,-400.000000,-400.000000,-400.000000,-400.000000,6
200193857,-5.421257,7.445383,12.866640,-1.012063,-9.143949,10.156012,-400.000000,-400.000000,-400.000000,-400.000000,-400.000000,-400.000000,6
200195854,-5.396080,7.471037,12.867117,-1.037478,-9.131598,10.169077,-400.000000,-400.000000,-400.000000,-400.000000,-400.000000,-400.000000,6
200197851,-5.401087,7.486010,12.887096,-1.042461,-9.144092,10.186553,-400.000000,-400.000000,-400.000000,-400.000000,-400.000000,-400.000000,6
200199849,-5.387115,7.480526,12.867641,-1.046705,-9.127378,10.174084,-400.000000,-400.000000,-400.000000,-400.000000,-400.000000,-400.000000,6
200201846,-5.390501,7.461691,12.852192,-1.035595,-9.121346,10.156941,-400.000000,-400.000000,-400.000000,-400.000000,-400.000000,-400.000000,6
200203843,-5.425787,7.444668,12.870455,-1.009440,-9.148121,10.157561,-400.000000,-400.000000,-400.000000,-400.000000,-400.000000,-400.000000,6
200205840,-5.434561,7.427168,12.861729,-0.996304,-9.148145,10.144448,-400.000000,-400.000000,-400.000000,-400.000000,-400.000000,-400.000000,6
200207837,-5.430698,7.410479,12.841177,-0.989890,-9.135938,10.125828,-400.000000,-400.000000,-400.000000,-400.000000,-400.000000,-400.000000,6
200209836,-5.445147,7.413054,12.858200,-0.983953,-9.151673,10.135627,-400.000000,-400.000000,-400.000000,-400.000000,-400.000000,-400.000000,6
200211836,-5.463696,7.418442,12.882137,-0.977373,-9.172916,10.150290,-400.000000,-400.000000,-400.000000,-400.000000,-400.000000,-400.000000,6
200213831,-5.464602,7.425022,12.889624,-0.980210,-9.177113,10.157323,-400.000000,-400.000000,-400.000000,-400.000000,-400.000000,-400.000000,6
200215828,-5.453682,7.456398,12.910080,-1.001358,-9.181881,10.183239,-400.000000,-400.000000,-400.000000,-400.000000,-400.000000,-400.000000,6
200217825,-5.432320,7.478905,12.911224,-1.023293,-9.171772,10.195065,-400.000000,-400.000000,-400.000000,-400.000000,-400.000000,-400.000000,6
200219822,-5.416203,7.485056,12.901258,-1.034427,-9.158731,10.193157,-400.000000,-400.000000,-400.000000,-400.000000,-400.000000,-400.000000,6
200221819,-5.422688,7.475567,12.898254,-1.026440,-9.160471,10.186911,-400.000000,-400.000000,-400.000000,-400.000000,-400.000000,-400.000000,6
200223816,-5.413628,7.461691,12.875319,-1.024032,-9.144473,10.168505,-400.000000,-400.000000,-400.000000,-400.000000,-400.000000,-400.000000,6
200225813,-5.409527,7.439852,12.849379,-1.015162,-9.129453,10.144615,-400.000000,-400.000000,-400.000000,-400.000000,-400.000000,-400.000000,6
200227810,-5.399036,7.416868,12.815905,-1.008916,-9.107471,10.116386,-400.000000,-400.000000,-400.000000,-400.000000,-400.000000,-400.000000,6
200229807,-5.387497,7.398891,12.786388,-1.005697,-9.086943,10.092640,-400.000000,-400.000000,-400.000000,-400.000000,-400.000000,-400.000000,6
200231805,-5.388117,7.403326,12.791443,-1.007605,-9.089780,10.097384,-400.000000,-400.000000,-400.000000,-400.000000,-400.000000,-400.000000,6
200233801,-5.403900,7.426119,12.830019,-1.011109,-9.116960,10.128069,-400.000000,-400.000000,-400.000000,-400.000000,-400.000000,-400.000000,6
200235798,-5.395699,7.458019,12.853718,-1.031160,-9.124708,10.155869,-400.000000,-400.000000,-400.000000,-400.000000,-400.000000,-400.000000,6
200237796,-5.396461,7.493591,12.890053,-1.048565,-9.143257,10.191822,-400.000000,-400.000000,-400.000000,-400.000000,-400.000000,-400.000000,6
200239793,-5.395079,7.491302,12.886381,-1.048112,-9.140730,10.188842,-400.000000,-400.000000,-400.000000,-400.000000,-400.000000,-400.000000,6
200241790,-5.394268,7.477808,12.872076,-1.041770,-9.133172,10.174942,-400.000000,-400.000000,-400.000000,-400.000000,-400.000000,-400.000000,6
200243787,-5.410147,7.463503,12.873650,-1.026678,-9.141898,10.168576,-400.000000,-400.000000,-400.000000,-400.000000,-400.000000,-400.000000,6
200245784,-5.433035,7.433844,12.866879,-1.000404,-9.149957,10.150361,-400.000000,-400.000000,-400.000000,-400.000000,-400.000000,-400.000000,6
200247781,-5.459166,7.409286,12.868452,-0.975060,-9.163809,10.138869,-400.000000,-400.000000,-400.000000,-400.000000,-400.000000,-400.000000,6
200249778,-5.468655,7.416010,12.884665,-0.973678,-9.176660,10.150337,-400.000000,-400.000000,-400.000000,-400.000000,-400.000000,-400.000000,6
200251776,-5.470324,7.422829,12.893152,-0.976253,-9.181738,10.157990,-400.000000,-400.000000,-400.000000,-400.000000,-400.000000,-400.000000,6
200253772,-5.458975,7.423496,12.882471,-0.982261,-9.170723,10.152984,-400.000000,-400.000000,-400.000000,-400.000000,-400.000000,-400.000000,6
200255769,-5.427122,7.444191,12.871313,-1.008534,-9.149218,10.157752,-400.000000,-400.000000,-400.000000,-400.000000,-400.000000,-400.000000,6
200257766,-5.399084,7.467222,12.866306,-1.034069,-9.132695,10.166764,-400.000000,-400.000000,-400.000000,-400.000000,-400.000000,-400.000000,6
200259763,-5.387402,7.473850,12.861252,-1.043224,-9.124327,10.167551,-400.000000,-400.000000,-400.000000,-400.000000,-400.000000,-400.000000,6
200261760,-5.393553,7.463503,12.857056,-1.034975,-9.125304,10.160279,-400.000000,-400.000000,-400.000000,-400.000000,-400.000000,-400.000000,6
200263756,-5.408525,7.434225,12.842751,-1.012850,-9.125638,10.138488,-400.000000,-400.000000,-400.000000,-400.000000,-400.000000,-400.000000,6
200265753,-5.420446,7.396030,12.816477,-0.987792,-9.118462,10.106254,-400.000000,-400.000000,-400.000000,-400.000000,-400.000000,-400.000000,6
200267750,-5.435944,7.379580,12.815523,-0.971818,-9.125733,10.097551,-400.000000,-400.000000,-400.000000,-400.000000,-400.000000,-400.000000,6
200269747,-5.433702,7.383251,12.816954,-0.974774,-9.125328,10.100102,-400.000000,-400.000000,-400.000000,-400.000000,-400.000000,-400.000000,6
200271745,-5.427217,7.378387,12.805605,-0.975585,-9.116411,10.091996,-400.000000,-400.000000,-400.000000,-400.000000,-400.000000,-400.000000,6
200273741,-5.414438,7.398415,12.812853,-0.991988,-9.113646,10.105634,-400.000000,-400.000000,-400.000000,-400.000000,-400.000000,-400.000000,6
200275738,-5.396938,7.427835,12.824774,-1.015449,-9.110856,10.126305,-400.000000,-400.000000,-400.000000,-400.000000,-400.000000,-400.000000,6
200277735,-5.403948,7.441092,12.845039,-1.018572,-9.124494,10.143065,-400.000000,-400.000000,-400.000000,-400.000000,-400.000000,-400.000000,6
200279732,-5.421448,7.432508,12.853956,-1.005530,-9.137702,10.143232,-400.000000,-400.000000,-400.000000,-400.000000,-400.000000,-400.000000,6
200281729,-5.423594,7.405472,12.829065,-0.990939,-9.126329,10.117269,-400.000000,-400.000000,-400.000000,-400.000000,-400.000000,-400.000000,6
200283725,-5.422974,7.408142,12.831116,-0.992584,-9.127045,10.119629,-400.000000,-400.000000,-400.000000,-400.000000,-400.000000,-400.000000,6
200285722,-5.425119,7.407141,12.832260,-0.991011,-9.128690,10.119700,-400.000000,-400.000000,-400.000000,-400.000000,-400.000000,-400.000000,6
200287720,-5.421257,7.390356,12.811613,-0.984550,-9.116435,10.100985,-400.000000,-400.000000,-400.000000,-400.000000,-400.000000,-400.000000,6
200289716,-5.412245,7.386017,12.798262,-0.986886,-9.105253,10.092139,-400.000000,-400.000000,-400.000000,-400.000000,-400.000000,-400.000000,6
200291714,-5.413723,7.373953,12.787676,-0.980115,-9.100699,10.080814,-400.000000,-400.000000,-400.000000,-400.000000,-400.000000,-400.000000,6
200293710,-5.418825,7.386637,12.805462,-0.983906,-9.112144,10.096049,-400.000000,-400.000000,-400.000000,-400.000000,-400.000000,-400.000000,6
200295707,-5.408096,7.404947,12.813044,-0.998425,-9.110570,10.108995,-400.000000,-400.000000,-400.000000,-400.000000,-400.000000,-400.000000,6
200297704,-5.403137,7.411718,12.814856,-1.004291,-9.108996,10.113287,-400.000000,-400.000000,-400.000000,-400.000000,-400.000000,-400.000000,6
200299701,-5.416012,7.419395,12.835407,-1.001692,-9.125710,10.127401,-400.000000,-400.000000,-400.000000,-400.000000,-400.000000,-400.000000,6
200301697,-5.414200,7.426548,12.840748,-1.006174,-9.127474,10.133648,-400.000000,-400.000000,-400.000000,-400.000000,-400.000000,-400.000000,6
200303694,-5.420494,7.404232,12.824726,-0.991869,-9.122610,10.114479,-400.000000,-400.000000,-400.000000,-400.000000,-400.000000,-400.000000,6
200305691,-5.426502,7.381058,12.807560,-0.977278,-9.117031,10.094309,-400.000000,-400.000000,-400.000000,-400.000000,-400.000000,-400.000000,6
200307688,-5.433512,7.351828,12.785339,-0.959158,-9.109426,10.068583,-400.000000,-400.000000,-400.000000,-400.000000,-400.000000,-400.000000,6
200309684,-5.442524,7.328272,12.770796,-0.942874,-9.106660,10.049534,-400.000000,-400.000000,-400.000000,-400.000000,-400.000000,-400.000000,6
200311684,-5.442381,7.352304,12.794685,-0.954962,-9.118533,10.073495,-400.000000,-400.000000,-400.000000,-400.000000,-400.000000,-400.000000,6
200313682,-5.425596,7.395887,12.821484,-0.985146,-9.123540,10.108685,-400.000000,-400.000000,-400.000000,-400.000000,-400.000000,-400.000000,6
200315678,-5.419445,7.427120,12.846565,-1.003838,-9.133005,10.136843,-400.000000,-400.000000,-400.000000,-400.000000,-400.000000,-400.000000,6
200317675,-5.423260,7.446003,12.869263,-1.011372,-9.146261,10.157633,-400.000000,-400.000000,-400.000000,-400.000000,-400.000000,-400.000000,6
200319672,-5.433655,7.428265,12.861919,-0.997305,-9.147787,10.145092,-400.000000,-400.000000,-400.000000,-400.000000,-400.000000,-400.000000,6
200321668,-5.442667,7.426023,12.868690,-0.991678,-9.155679,10.147357,-400.000000,-400.000000,-400.000000,-400.000000,-400.000000,-400.000000,6
200323665,-5.453539,7.428455,12.881994,-0.987458,-9.167767,10.155225,-400.000000,-400.000000,-400.000000,-400.000000,-400.000000,-400.000000,6
200325662,-5.444288,7.417393,12.861681,-0.986552,-9.152985,10.139537,-400.000000,-400.000000,-400.000000,-400.000000,-400.000000,-400.000000,6
200327659,-5.449629,7.387257,12.836885,-0.968814,-9.143257,10.112071,-400.000000,-400.000000,-400.000000,-400.000000,-400.000000,-400.000000,6
200329655,-5.467606,7.351017,12.818623,-0.941706,-9.143114,10.084820,-400.000000,-400.000000,-400.000000,-400.000000,-400.000000,-400.000000,6
200331654,-5.458450,7.355070,12.813520,-0.948310,-9.135985,10.084295,-400.000000,-400.000000,-400.000000,-400.000000,-400.000000,-400.000000,6
200333653,-5.423880,7.379103,12.802982,-0.977612,-9.113431,10.091043,-400.000000,-400.000000,-400.000000,-400.000000,-400.000000,-400.000000,6
200335646,-5.411816,7.395792,12.807608,-0.991988,-9.109712,10.101700,-400.000000,-400.000000,-400.000000,-400.000000,-400.000000,-400.000000,6
200337643,-5.413866,7.416296,12.830162,-1.001215,-9.122014,10.123229,-400.000000,-400.000000,-400.000000,-400.000000,-400.000000,-400.000000,6
200339640,-5.413771,7.431173,12.844944,-1.008701,-9.129357,10.138059,-400.000000,-400.000000,-400.000000,-400.000000,-400.000000,-400.000000,6
200341636,-5.418205,7.423496,12.841702,-1.002645,-9.129953,10.132599,-400.000000,-400.000000,-400.000000,-400.000000,-400.000000,-400.000000,6
200343633,-5.425310,7.408857,12.834167,-0.991774,-9.129739,10.121512,-400.000000,-400.000000,-400.000000,-400.000000,-400.000000,-400.000000,6
200345630,-5.436516,7.387543,12.824059,-0.975513,-9.130287,10.105801,-400.000000,-400.000000,-400.000000,-400.000000,-400.000000,-400.000000,6
200347627,-5.451775,7.351351,12.803125,-0.949788,-9.127450,10.077238,-400.000000,-400.000000,-400.000000,-400.000000,-400.000000,-400.000000,6
200349624,-5.453682,7.341909,12.795591,-0.944114,-9.124637,10.068750,-400.000000,-400.000000,-400.000000,-400.000000,-400.000000,-400.000000,6
200351621,-5.439377,7.356548,12.795925,-0.958586,-9.117651,10.076237,-400.000000,-400.000000,-400.000000,-400.000000,-400.000000,-400.000000,6
200353617,-5.416632,7.377720,12.794352,-0.980544,-9.105492,10.086036,-400.000000,-400.000000,-400.000000,-400.000000,-400.000000,-400.000000,6
200355615,-5.399323,7.399893,12.799215,-1.000285,-9.099269,10.099554,-400.000000,-400.000000,-400.000000,-400.000000,-400.000000,-400.000000,6
200357611,-5.405617,7.394457,12.800074,-0.994420,-9.102845,10.097265,-400.000000,-400.000000,-400.000000,-400.000000,-400.000000,-400.000000,6
200359608,-5.401087,7.384968,12.786055,-0.991940,-9.093571,10.085511,-400.000000,-400.000000,-400.000000,-400.000000,-400.000000,-400.000000,6
200361605,-5.394459,7.385206,12.779665,-0.995374,-9.087062,10.082436,-400.000000,-400.000000,-400.000000,-400.000000,-400.000000,-400.000000,6
200363602,-5.404329,7.379770,12.784100,-0.987720,-9.094214,10.081935,-400.000000,-400.000000,-400.000000,-400.000000,-400.000000,-400.000000,6
200365599,-5.424976,7.382298,12.807274,-0.978661,-9.116125,10.094786,-400.000000,-400.000000,-400.000000,-400.000000,-400.000000,-400.000000,6
200367596,-5.434084,7.366657,12.800741,-0.966287,-9.117413,10.083699,-400.000000,-400.000000,-400.000000,-400.000000,-400.000000,-400.000000,6
200369593,-5.433559,7.347441,12.781000,-0.956941,-9.107280,10.064220,-400.000000,-400.000000,-400.000000,-400.000000,-400.000000,-400.000000,6
200371590,-5.431747,7.350922,12.782669,-0.959587,-9.107208,10.066795,-400.000000,-400.000000,-400.000000,-400.000000,-400.000000,-400.000000,6
200373590,-5.443525,7.380295,12.823820,-0.968385,-9.133673,10.102057,-400.000000,-400.000000,-400.000000,-400.000000,-400.000000,-400.000000,6
200375584,-5.438995,7.404423,12.843418,-0.982714,-9.141207,10.123920,-400.000000,-400.000000,-400.000000,-400.000000,-400.000000,-400.000000,6
200377581,-5.431461,7.413101,12.844563,-0.990820,-9.138012,10.128832,-400.000000,-400.000000,-400.000000,-400.000000,-400.000000,-400.000000,6
200379578,-5.429745,7.416821,12.846565,-0.993538,-9.138155,10.131693,-400.000000,-400.000000,-400.000000,-400.000000,-400.000000,-400.000000,6
200381574,-5.424452,7.402229,12.826681,-0.988889,-9.125566,10.114455,-400.000000,-400.000000,-400.000000,-400.000000,-400.000000,-400.000000,6
200383571,-5.423832,7.388544,12.812376,-0.982356,-9.118104,10.100460,-400.000000,-400.000000,-400.000000,-400.000000,-400.000000,-400.000000,6
200385568,-5.430317,7.367897,12.798214,-0.968790,-9.114265,10.083055,-400.000000,-400.000000,-400.000000,-400.000000,-400.000000,-400.000000,6
200387566,-5.442476,7.344866,12.787342,-0.951195,-9.114909,10.066104,-400.000000,-400.000000,-400.000000,-400.000000,-400.000000,-400.000000,6
200389562,-5.443382,7.333326,12.776709,-0.944972,-9.110045,10.055017,-400.000000,-400.000000,-400.000000,-400.000000,-400.000000,-400.000000,6
200391559,-5.440664,7.345343,12.786007,-0.952339,-9.113336,10.065675,-400.000000,-400.000000,-400.000000,-400.000000,-400.000000,-400.000000,6
200393556,-5.456066,7.370520,12.826586,-0.957227,-9.141326,10.098553,-400.000000,-400.000000,-400.000000,-400.000000,-400.000000,-400.000000,6
200395554,-5.467081,7.391024,12.858105,-0.961971,-9.162593,10.124564,-400.000000,-400.000000,-400.000000,-400.000000,-400.000000,-400.000000,6
200397550,-5.466652,7.405138,12.871790,-0.969243,-9.169221,10.138464,-400.000000,-400.000000,-400.000000,-400.000000,-400.000000,-400.000000,6
200399547,-5.466032,7.421446,12.887478,-0.977707,-9.176755,10.154462,-400.000000,-400.000000,-400.000000,-400.000000,-400.000000,-400.000000,6
200401544,-5.471659,7.418776,12.890434,-0.973558,-9.181046,10.154605,-400.000000,-400.000000,-400.000000,-400.000000,-400.000000,-400.000000,6
200403540,-5.475187,7.399035,12.874222,-0.961924,-9.174705,10.136628,-400.000000,-400.000000,-400.000000,-400.000000,-400.000000,-400.000000,6
200405537,-5.455351,7.383490,12.838840,-0.964069,-9.147096,10.111165,-400.000000,-400.000000,-400.000000,-400.000000,-400.000000,-400.000000,6
200407534,-5.444574,7.371902,12.816477,-0.963664,-9.130526,10.094190,-400.000000,-400.000000,-400.000000,-400.000000,-400.000000,-400.000000,6
200409531,-5.434227,7.354832,12.789059,-0.960302,-9.111643,10.071945,-400.000000,-400.000000,-400.000000,-400.000000,-400.000000,-400.000000,6
200411528,-5.429077,7.349777,12.778854,-0.960350,-9.103966,10.064316,-400.000000,-400.000000,-400.000000,-400.000000,-400.000000,-400.000000,6
200413525,-5.429888,7.353592,12.783480,-0.961852,-9.106684,10.068536,-400.000000,-400.000000,-400.000000,-400.000000,-400.000000,-400.000000,6
200415526,-5.438519,7.367897,12.806416,-0.964689,-9.122467,10.087156,-400.000000,-400.000000,-400.000000,-400.000000,-400.000000,-400.000000,6
200417522,-5.456543,7.373953,12.830496,-0.958705,-9.143519,10.102224,-400.000000,-400.000000,-400.000000,-400.000000,-400.000000,-400.000000,6
200419519,-5.473566,7.380533,12.854099,-0.953484,-9.163833,10.117316,-400.000000,-400.000000,-400.000000,-400.000000,-400.000000,-400.000000,6
200421516,-5.456066,7.377100,12.833166,-0.960517,-9.144616,10.105133,-400.000000,-400.000000,-400.000000,-400.000000,-400.000000,-400.000000,6
200423513,-5.444098,7.373762,12.817860,-0.964832,-9.130979,10.095811,-400.000000,-400.000000,-400.000000,-400.000000,-400.000000,-400.000000,6
200425510,-5.419827,7.377100,12.796926,-0.978637,-9.108377,10.087013,-400.000000,-400.000000,-400.000000,-400.000000,-400.000000,-400.000000,6
200427507,-5.410290,7.372761,12.783051,-0.981236,-9.096670,10.077906,-400.000000,-400.000000,-400.000000,-400.000000,-400.000000,-400.000000,6
200429504,-5.418348,7.371140,12.789488,-0.976396,-9.103918,10.080314,-400.000000,-400.000000,-400.000000,-400.000000,-400.000000,-400.000000,6
200431502,-5.416584,7.359600,12.776184,-0.971508,-9.096384,10.067892,-400.000000,-400.000000,-400.000000,-400.000000,-400.000000,-400.000000,6
200433499,-5.414391,7.363224,12.777615,-0.974417,-9.096003,10.070419,-400.000000,-400.000000,-400.000000,-400.000000,-400.000000,-400.000000,6
200435495,-5.422878,7.374811,12.797689,-0.975966,-9.110284,10.086250,-400.000000,-400.000000,-400.000000,-400.000000,-400.000000,-400.000000,6
200437493,-5.412769,7.388878,12.801647,-0.988054,-9.107208,10.095263,-400.000000,-400.000000,-400.000000,-400.000000,-400.000000,-400.000000,6
200439490,-5.405855,7.398987,12.804842,-0.996566,-9.105349,10.101914,-400.000000,-400.000000,-400.000000,-400.000000,-400.000000,-400.000000,6
200441487,-5.421495,7.395983,12.817478,-0.987244,-9.119487,10.106730,-400.000000,-400.000000,-400.000000,-400.000000,-400.000000,-400.000000,6
200443484,-5.447340,7.388258,12.835598,-0.970459,-9.141469,10.111928,-400.000000,-400.000000,-400.000000,-400.000000,-400.000000,-400.000000,6
200445481,-5.454826,7.374668,12.829494,-0.959921,-9.142160,10.102081,-400.000000,-400.000000,-400.000000,-400.000000,-400.000000,-400.000000,6
200447478,-5.435896,7.358265,12.794161,-0.961185,-9.115028,10.076213,-400.000000,-400.000000,-400.000000,-400.000000,-400.000000,-400.000000,6
200449475,-5.419159,7.362032,12.781191,-0.971437,-9.100175,10.071611,-400.000000,-400.000000,-400.000000,-400.000000,-400.000000,-400.000000,6
200451472,-5.404425,7.369566,12.773991,-0.982571,-9.089208,10.071778,-400.000000,-400.000000,-400.000000,-400.000000,-400.000000,-400.000000,6
200453469,-5.392885,7.385015,12.777901,-0.996065,-9.085393,10.081458,-400.000000,-400.000000,-400.000000,-400.000000,-400.000000,-400.000000,6
200455467,-5.395126,7.418537,12.813663,-1.011705,-9.104395,10.116100,-400.000000,-400.000000,-400.000000,-400.000000,-400.000000,-400.000000,6
200457464,-5.390501,7.441664,12.832165,-1.025581,-9.111333,10.136914,-400.000000,-400.000000,-400.000000,-400.000000,-400.000000,-400.000000,6
200459461,-5.399656,7.466459,12.866116,-1.033401,-9.132886,10.166287,-400.000000,-400.000000,-400.000000,-400.000000,-400.000000,-400.000000,6
200461458,-5.408859,7.486010,12.894869,-1.038575,-9.151864,10.190439,-400.000000,-400.000000,-400.000000,-400.000000,-400.000000,-400.000000,6
200463455,-5.434132,7.480621,12.914753,-1.023245,-9.174442,10.197687,-400.000000,-400.000000,-400.000000,-400.000000,-400.000000,-400.000000,6
200465452,-5.454731,7.466745,12.921476,-1.006007,-9.188104,10.194111,-400.000000,-400.000000,-400.000000,-400.000000,-400.000000,-400.000000,6
200467449,-5.467939,7.451057,12.918997,-0.991559,-9.193468,10.185027,-400.000000,-400.000000,-400.000000,-400.000000,-400.000000,-400.000000,6
200469446,-5.472136,7.439804,12.911940,-0.983834,-9.192038,10.175872,-400.000000,-400.000000,-400.000000,-400.000000,-400.000000,-400.000000,6
200471443,-5.451298,7.428455,12.879753,-0.988579,-9.165525,10.154104,-400.000000,-400.000000,-400.000000,-400.000000,-400.000000,-400.000000,6
200473441,-5.400944,7.429600,12.830544,-1.014328,-9.115744,10.130072,-400.000000,-400.000000,-400.000000,-400.000000,-400.000000,-400.000000,6
200475437,-5.381775,7.453728,12.835503,-1.035976,-9.108639,10.144615,-400.000000,-400.000000,-400.000000,-400.000000,-400.000000,-400.000000,6
200477434,-5.371714,7.483149,12.854862,-1.055717,-9.113288,10.169005,-400.000000,-400.000000,-400.000000,-400.000000,-400.000000,-400.000000,6
200479432,-5.365992,7.487011,12.853003,-1.060510,-9.109497,10.170007,-400.000000,-400.000000,-400.000000,-400.000000,-400.000000,-400.000000,6
200481429,-5.389166,7.500315,12.889481,-1.055574,-9.139323,10.194898,-400.000000,-400.000000,-400.000000,-400.000000,-400.000000,-400.000000,6
200483426,-5.393696,7.497501,12.891197,-1.051903,-9.142447,10.194349,-400.000000,-400.000000,-400.000000,-400.000000,-400.000000,-400.000000,6
200485423,-5.393505,7.472420,12.865925,-1.039457,-9.129715,10.169172,-400.000000,-400.000000,-400.000000,-400.000000,-400.000000,-400.000000,6
200487421,-5.392408,7.457447,12.849855,-1.032519,-9.121132,10.153651,-400.000000,-400.000000,-400.000000,-400.000000,-400.000000,-400.000000,6
200489417,-5.390120,7.462931,12.853050,-1.036406,-9.121585,10.157990,-400.000000,-400.000000,-400.000000,-400.000000,-400.000000,-400.000000,6
200491414,-5.393124,7.481766,12.874889,-1.044321,-9.134007,10.178328,-400.000000,-400.000000,-400.000000,-400.000000,-400.000000,-400.000000,6
200493412,-5.402040,7.507038,12.909079,-1.052499,-9.155560,10.208058,-400.000000,-400.000000,-400.000000,-400.000000,-400.000000,-400.000000,6
200495409,-5.413961,7.540226,12.954187,-1.063132,-9.184074,10.247207,-400.000000,-400.000000,-400.000000,-400.000000,-400.000000,-400.000000,6
200497406,-5.410719,7.551146,12.961864,-1.070213,-9.186292,10.256505,-400.000000,-400.000000,-400.000000,-400.000000,-400.000000,-400.000000,6
200499403,-5.392838,7.545710,12.938547,-1.076436,-9.165692,10.242128,-400.000000,-400.000000,-400.000000,-400.000000,-400.000000,-400.000000,6
200501400,-5.378437,7.525635,12.904072,-1.073599,-9.141254,10.214853,-400.000000,-400.000000,-400.000000,-400.000000,-400.000000,-400.000000,6
200503397,-5.378771,7.494926,12.873697,-1.058078,-9.126234,10.184312,-400.000000,-400.000000,-400.000000,-400.000000,-400.000000,-400.000000,6
200505394,-5.389500,7.477808,12.867308,-1.044154,-9.128404,10.172558,-400.000000,-400.000000,-400.000000,-400.000000,-400.000000,-400.000000,6
200507391,-5.398846,7.467318,12.866163,-1.034236,-9.132504,10.166740,-400.000000,-400.000000,-400.000000,-400.000000,-400.000000,-400.000000,6
200509388,-5.414629,7.435799,12.850428,-1.010585,-9.132528,10.143113,-400.000000,-400.000000,-400.000000,-400.000000,-400.000000,-400.000000,6
200511385,-5.410433,7.411909,12.822342,-1.000738,-9.116387,10.117126,-400.000000,-400.000000,-400.000000,-400.000000,-400.000000,-400.000000,6
200513382,-5.410051,7.405233,12.815285,-0.997591,-9.112668,10.110259,-400.000000,-400.000000,-400.000000,-400.000000,-400.000000,-400.000000,6
200515380,-5.397606,7.405186,12.802792,-1.003790,-9.100199,10.103989,-400.000000,-400.000000,-400.000000,-400.000000,-400.000000,-400.000000,6
200517380,-5.402899,7.401276,12.804174,-0.999188,-9.103537,10.102725,-400.000000,-400.000000,-400.000000,-400.000000,-400.000000,-400.000000,6
200519377,-5.419445,7.412100,12.831545,-0.996327,-9.125495,10.121822,-400.000000,-400.000000,-400.000000,-400.000000,-400.000000,-400.000000,6
200521373,-5.420256,7.415247,12.835503,-0.997496,-9.127879,10.125375,-400.000000,-400.000000,-400.000000,-400.000000,-400.000000,-400.000000,6
200523371,-5.431700,7.399225,12.830925,-0.983763,-9.131312,10.115075,-400.000000,-400.000000,-400.000000,-400.000000,-400.000000,-400.000000,6
200525368,-5.440140,7.376862,12.817001,-0.968361,-9.128571,10.096931,-400.000000,-400.000000,-400.000000,-400.000000,-400.000000,-400.000000,6
200527365,-5.460548,7.342005,12.802553,-0.940728,-9.131551,10.072279,-400.000000,-400.000000,-400.000000,-400.000000,-400.000000,-400.000000,6
200529362,-5.453730,7.308912,12.762642,-0.927591,-9.108186,10.035777,-400.000000,-400.000000,-400.000000,-400.000000,-400.000000,-400.000000,6
200531361,-5.453777,7.301855,12.755632,-0.924039,-9.104705,10.028744,-400.000000,-400.000000,-400.000000,-400.000000,-400.000000,-400.000000,6
200533356,-5.451632,7.320738,12.772369,-0.934553,-9.112000,10.046554,-400.000000,-400.000000,-400.000000,-400.000000,-400.000000,-400.000000,6
200535353,-5.441666,7.340813,12.782478,-0.949574,-9.112072,10.061646,-400.000000,-400.000000,-400.000000,-400.000000,-400.000000,-400.000000,6
200537350,-5.426836,7.356310,12.783146,-0.964737,-9.104991,10.069728,-400.000000,-400.000000,-400.000000,-400.000000,-400.000000,-400.000000,6
200539347,-5.415297,7.350540,12.765837,-0.967622,-9.090567,10.058188,-400.000000,-400.000000,-400.000000,-400.000000,-400.000000,-400.000000,6
200541345,-5.395699,7.350636,12.746334,-0.977468,-9.071016,10.048485,-400.000000,-400.000000,-400.000000,-400.000000,-400.000000,-400.000000,6
200543341,-5.408621,7.353497,12.762117,-0.972438,-9.085369,10.057807,-400.000000,-400.000000,-400.000000,-400.000000,-400.000000,-400.000000,6
200545338,-5.432892,7.341242,12.774134,-0.954175,-9.103513,10.057688,-400.000000,-400.000000,-400.000000,-400.000000,-400.000000,-400.000000,6
200547335,-5.440664,7.320356,12.761021,-0.939846,-9.100842,10.040689,-400.000000,-400.000000,-400.000000,-400.000000,-400.000000,-400.000000,6
200549332,-5.444336,7.306623,12.750959,-0.931144,-9.097648,10.028791,-400.000000,-400.000000,-400.000000,-400.000000,-400.000000,-400.000000,6
200551332,-5.444479,7.296705,12.741184,-0.926113,-9.092832,10.018945,-400.000000,-400.000000,-400.000000,-400.000000,-400.000000,-400.000000,6
200553328,-5.443048,7.299089,12.742138,-0.928020,-9.092593,10.020614,-400.000000,-400.000000,-400.000000,-400.000000,-400.000000,-400.000000,6
200555324,-5.442333,7.316351,12.758684,-0.937009,-9.100509,10.037518,-400.000000,-400.000000,-400.000000,-400.000000,-400.000000,-400.000000,6
200557321,-5.439663,7.323456,12.763119,-0.941896,-9.101391,10.043287,-400.000000,-400.000000,-400.000000,-400.000000,-400.000000,-400.000000,6
200559318,-5.429077,7.332754,12.761831,-0.951838,-9.095454,10.047293,-400.000000,-400.000000,-400.000000,-400.000000,-400.000000,-400.000000,6
200561315,-5.429077,7.348013,12.777090,-0.959468,-9.103084,10.062551,-400.000000,-400.000000,-400.000000,-400.000000,-400.000000,-400.000000,6
200563312,-5.420637,7.349443,12.770081,-0.964403,-9.095359,10.059762,-400.000000,-400.000000,-400.000000,-400.000000,-400.000000,-400.000000,6
200565309,-5.418730,7.328320,12.747049,-0.954795,-9.082890,10.037684,-400.000000,-400.000000,-400.000000,-400.000000,-400.000000,-400.000000,6
200567307,-5.436468,7.301235,12.737703,-0.932384,-9.087086,10.019469,-400.000000,-400.000000,-400.000000,-400.000000,-400.000000,-400.000000,6
200569307,-5.436134,7.276821,12.712955,-0.920343,-9.074545,9.994888,-400.000000,-400.000000,-400.000000,-400.000000,-400.000000,-400.000000,6
200571301,-5.428267,7.243824,12.672091,-0.907779,-9.050179,9.957957,-400.000000,-400.000000,-400.000000,-400.000000,-400.000000,-400.000000,6
200573298,-5.427790,7.236433,12.664223,-0.904322,-9.046006,9.950328,-400.000000,-400.000000,-400.000000,-400.000000,-400.000000,-400.000000,6
200575296,-5.428362,7.275534,12.703896,-0.923586,-9.066129,9.989715,-400.000000,-400.000000,-400.000000,-400.000000,-400.000000,-400.000000,6
200577292,-5.431604,7.336569,12.768173,-0.952482,-9.099889,10.052371,-400.000000,-400.000000,-400.000000,-400.000000,-400.000000,-400.000000,6
200579289,-5.433512,7.368231,12.801743,-0.967360,-9.117627,10.084987,-400.000000,-400.000000,-400.000000,-400.000000,-400.000000,-400.000000,6
200581286,-5.435085,7.363033,12.798119,-0.963974,-9.116602,10.080576,-400.000000,-400.000000,-400.000000,-400.000000,-400.000000,-400.000000,6
200583283,-5.434608,7.333899,12.768507,-0.949645,-9.101558,10.051203,-400.000000,-400.000000,-400.000000,-400.000000,-400.000000,-400.000000,6
200585280,-5.442238,7.279587,12.721825,-0.918674,-9.082031,10.000706,-400.000000,-400.000000,-400.000000,-400.000000,-400.000000,-400.000000,6
200587277,-5.465841,7.226276,12.692118,-0.880218,-9.078979,9.959197,-400.000000,-400.000000,-400.000000,-400.000000,-400.000000,-400.000000,6
200589275,-5.480862,7.164431,12.645292,-0.841784,-9.063077,9.904861,-400.000000,-400.000000,-400.000000,-400.000000,-400.000000,-400.000000,6
200591272,-5.482864,7.107306,12.590170,-0.812221,-9.036517,9.848738,-400.000000,-400.000000,-400.000000,-400.000000,-400.000000,-400.000000,6
200593268,-5.466652,7.082653,12.549305,-0.808001,-9.007978,9.815979,-400.000000,-400.000000,-400.000000,-400.000000,-400.000000,-400.000000,6
200595265,-5.434227,7.096863,12.531090,-0.831318,-8.982658,9.813976,-400.000000,-400.000000,-400.000000,-400.000000,-400.000000,-400.000000,6
200597262,-5.401564,7.142258,12.543821,-0.870347,-8.972692,9.843040,-400.000000,-400.000000,-400.000000,-400.000000,-400.000000,-400.000000,6
200599259,-5.361652,7.215214,12.576866,-0.926781,-8.969259,9.896040,-400.000000,-400.000000,-400.000000,-400.000000,-400.000000,-400.000000,6
200601257,-5.325747,7.321024,12.646770,-0.997639,-8.986259,9.983897,-400.000000,-400.000000,-400.000000,-400.000000,-400.000000,-400.000000,6
200603254,-5.281782,7.440948,12.722731,-1.079583,-9.002256,10.081840,-400.000000,-400.000000,-400.000000,-400.000000,-400.000000,-400.000000,6
200605250,-5.261087,7.548952,12.810040,-1.143932,-9.035563,10.179496,-400.000000,-400.000000,-400.000000,-400.000000,-400.000000,-400.000000,6
200607248,-5.255032,7.669020,12.924051,-1.206994,-9.089541,10.296535,-400.000000,-400.000000,-400.000000,-400.000000,-400.000000,-400.000000,6
200609245,-5.260897,7.795477,13.056374,-1.267290,-9.158635,10.425925,-400.000000,-400.000000,-400.000000,-400.000000,-400.000000,-400.000000,6
200611243,-5.270958,7.950449,13.221407,-1.339746,-9.246182,10.585928,-400.000000,-400.000000,-400.000000,-400.000000,-400.000000,-400.000000,6
200613239,-5.243111,8.115816,13.358927,-1.436353,-9.301019,10.737371,-400.000000,-400.000000,-400.000000,-400.000000,-400.000000,-400.000000,6
200615237,-5.225182,8.302164,13.527346,-1.538491,-9.376264,10.914755,-400.000000,-400.000000,-400.000000,-400.000000,-400.000000,-400.000000,6
200617233,-5.229330,8.515739,13.745070,-1.643205,-9.487200,11.130404,-400.000000,-400.000000,-400.000000,-400.000000,-400.000000,-400.000000,6
200619234,-5.274487,8.673477,13.947964,-1.699495,-9.611225,11.310720,-400.000000,-400.000000,-400.000000,-400.000000,-400.000000,-400.000000,6
200621231,-5.372000,8.744669,14.116669,-1.686335,-9.744334,11.430669,-400.000000,-400.000000,-400.000000,-400.000000,-400.000000,-400.000000,6
200623228,-5.511951,8.823538,14.335489,-1.655793,-9.923720,11.579514,-400.000000,-400.000000,-400.000000,-400.000000,-400.000000,-400.000000,6
200625225,-5.600071,8.791590,14.391661,-1.595759,-9.995866,11.591625,-400.000000,-400.000000,-400.000000,-400.000000,-400.000000,-400.000000,6
200627222,-5.661106,8.666801,14.327908,-1.502848,-9.994507,11.497355,-400.000000,-400.000000,-400.000000,-400.000000,-400.000000,-400.000000,6
200629219,-5.743456,8.524513,14.267969,-1.390529,-10.005713,11.396241,-400.000000,-400.000000,-400.000000,-400.000000,-400.000000,-400.000000,6
200631218,-5.831385,8.300447,14.131832,-1.234531,-9.981608,11.216140,-400.000000,-400.000000,-400.000000,-400.000000,-400.000000,-400.000000,6
200633216,-5.901861,7.977533,13.879395,-1.037836,-9.890628,10.928464,-400.000000,-400.000000,-400.000000,-400.000000,-400.000000,-400.000000,6
200635216,-5.943871,7.751131,13.695002,-0.903630,-9.819436,10.723066,-400.000000,-400.000000,-400.000000,-400.000000,-400.000000,-400.000000,6
200637207,-5.970049,7.614803,13.584852,-0.822377,-9.777451,10.599828,-400.000000,-400.000000,-400.000000,-400.000000,-400.000000,-400.000000,6
200639204,-5.992985,7.471323,13.464308,-0.739169,-9.728646,10.467815,-400.000000,-400.000000,-400.000000,-400.000000,-400.000000,-400.000000,6
200641201,-5.991268,7.278919,13.270187,-0.643826,-9.630728,10.274553,-400.000000,-400.000000,-400.000000,-400.000000,-400.000000,-400.000000,6
200643198,-5.962086,7.115889,13.077974,-0.576901,-9.520030,10.096931,-400.000000,-400.000000,-400.000000,-400.000000,-400.000000,-400.000000,6
200645195,-5.943203,7.026958,12.970161,-0.541878,-9.456682,9.998560,-400.000000,-400.000000,-400.000000,-400.000000,-400.000000,-400.000000,6
200647192,-5.944967,6.983185,12.928152,-0.519109,-9.436560,9.955668,-400.000000,-400.000000,-400.000000,-400.000000,-400.000000,-400.000000,6
200649189,-5.956650,6.961918,12.918568,-0.502634,-9.437609,9.940243,-400.000000,-400.000000,-400.000000,-400.000000,-400.000000,-400.000000,6
200651186,-5.931234,6.964254,12.895489,-0.516510,-9.413362,9.929872,-400.000000,-400.000000,-400.000000,-400.000000,-400.000000,-400.000000,6
200653182,-5.880690,7.001925,12.882614,-0.560617,-9.381652,9.942269,-400.000000,-400.000000,-400.000000,-400.000000,-400.000000,-400.000000,6
200655179,-5.828810,7.059622,12.888432,-0.615406,-9.358621,9.974027,-400.000000,-400.000000,-400.000000,-400.000000,-400.000000,-400.000000,6
200657176,-5.774879,7.108116,12.882996,-0.666618,-9.328938,9.995556,-400.000000,-400.000000,-400.000000,-400.000000,-400.000000,-400.000000,6
200659173,-5.724764,7.122803,12.847567,-0.699019,-9.286165,9.985185,-400.000000,-400.000000,-400.000000,-400.000000,-400.000000,-400.000000,6
200661170,-5.679703,7.148743,12.828445,-0.734520,-9.254074,9.988594,-400.000000,-400.000000,-400.000000,-400.000000,-400.000000,-400.000000,6
200663167,-5.642509,7.210541,12.853050,-0.784016,-9.247780,10.031796,-400.000000,-400.000000,-400.000000,-400.000000,-400.000000,-400.000000,6
200665164,-5.591488,7.256317,12.847805,-0.832415,-9.219646,10.052061,-400.000000,-400.000000,-400.000000,-400.000000,-400.000000,-400.000000,6
200667161,-5.579710,7.272053,12.851763,-0.846171,-9.215736,10.061908,-400.000000,-400.000000,-400.000000,-400.000000,-400.000000,-400.000000,6
200669158,-5.569410,7.274818,12.844229,-0.852704,-9.206820,10.059524,-400.000000,-400.000000,-400.000000,-400.000000,-400.000000,-400.000000,6
200671155,-5.529737,7.307148,12.836885,-0.888705,-9.183311,10.072017,-400.000000,-400.000000,-400.000000,-400.000000,-400.000000,-400.000000,6
200673152,-5.495691,7.325983,12.821674,-0.915146,-9.158683,10.073829,-400.000000,-400.000000,-400.000000,-400.000000,-400.000000,-400.000000,6
200675149,-5.466747,7.342482,12.809229,-0.937867,-9.137988,10.075855,-400.000000,-400.000000,-400.000000,-400.000000,-400.000000,-400.000000,6
200677146,-5.441475,7.378674,12.820148,-0.968599,-9.130812,10.099411,-400.000000,-400.000000,-400.000000,-400.000000,-400.000000,-400.000000,6
200679143,-5.433655,7.387781,12.821436,-0.977063,-9.127545,10.104609,-400.000000,-400.000000,-400.000000,-400.000000,-400.000000,-400.000000,6
200681140,-5.428362,7.386732,12.815094,-0.979185,-9.121728,10.100913,-400.000000,-400.000000,-400.000000,-400.000000,-400.000000,-400.000000,6
200683137,-5.423880,7.375479,12.799358,-0.975800,-9.111619,10.087419,-400.000000,-400.000000,-400.000000,-400.000000,-400.000000,-400.000000,6
200685134,-5.432129,7.358074,12.790203,-0.962973,-9.111166,10.074139,-400.000000,-400.000000,-400.000000,-400.000000,-400.000000,-400.000000,6
200687131,-5.444622,7.343721,12.788343,-0.949550,-9.116483,10.066032,-400.000000,-400.000000,-400.000000,-400.000000,-400.000000,-400.000000,6
200689129,-5.465841,7.324171,12.790012,-0.929165,-9.127927,10.057092,-400.000000,-400.000000,-400.000000,-400.000000,-400.000000,-400.000000,6
200691125,-5.475330,7.312727,12.788057,-0.918698,-9.131694,10.050392,-400.000000,-400.000000,-400.000000,-400.000000,-400.000000,-400.000000,6
200693122,-5.475187,7.318640,12.793827,-0.921726,-9.134507,10.056233,-400.000000,-400.000000,-400.000000,-400.000000,-400.000000,-400.000000,6
200695119,-5.473185,7.338428,12.811613,-0.932622,-9.142399,10.075021,-400.000000,-400.000000,-400.000000,-400.000000,-400.000000,-400.000000,6
200697115,-5.433321,7.384634,12.817955,-0.975657,-9.125638,10.101295,-400.000000,-400.000000,-400.000000,-400.000000,-400.000000,-400.000000,6
200699112,-5.395269,7.405615,12.800884,-1.005173,-9.098077,10.103250,-400.000000,-400.000000,-400.000000,-400.000000,-400.000000,-400.000000,6
200701110,-5.394363,7.401943,12.796307,-1.003790,-9.095335,10.099125,-400.000000,-400.000000,-400.000000,-400.000000,-400.000000,-400.000000,6
200703107,-5.388975,7.385874,12.774849,-0.998449,-9.081912,10.080361,-400.000000,-400.000000,-400.000000,-400.000000,-400.000000,-400.000000,6
200705104,-5.368519,7.381296,12.749815,-1.006389,-9.059167,10.065556,-400.000000,-400.000000,-400.000000,-400.000000,-400.000000,-400.000000,6
200707101,-5.373573,7.358170,12.731743,-0.992298,-9.052658,10.044956,-400.000000,-400.000000,-400.000000,-400.000000,-400.000000,-400.000000,6
200709099,-5.380011,7.321882,12.701893,-0.970936,-9.040952,10.011888,-400.000000,-400.000000,-400.000000,-400.000000,-400.000000,-400.000000,6
200711096,-5.392361,7.313681,12.706041,-0.960660,-9.049201,10.009861,-400.000000,-400.000000,-400.000000,-400.000000,-400.000000,-400.000000,6
200713092,-5.407286,7.328320,12.735605,-0.960517,-9.071445,10.031962,-400.000000,-400.000000,-400.000000,-400.000000,-400.000000,-400.000000,6
200715089,-5.410147,7.371616,12.781763,-0.980735,-9.095955,10.076690,-400.000000,-400.000000,-400.000000,-400.000000,-400.000000,-400.000000,6
200717086,-5.404186,7.390070,12.794256,-0.992942,-9.099221,10.092163,-400.000000,-400.000000,-400.000000,-400.000000,-400.000000,-400.000000,6
200719084,-5.401564,7.375622,12.777185,-0.987029,-9.089375,10.076404,-400.000000,-400.000000,-400.000000,-400.000000,-400.000000,-400.000000,6
200721084,-5.387545,7.396030,12.783575,-1.004243,-9.085560,10.089803,-400.000000,-400.000000,-400.000000,-400.000000,-400.000000,-400.000000,6
200723078,-5.370426,7.422495,12.792921,-1.026034,-9.081674,10.107708,-400.000000,-400.000000,-400.000000,-400.000000,-400.000000,-400.000000,6
200725077,-5.363750,7.422781,12.786531,-1.029515,-9.075141,10.104656,-400.000000,-400.000000,-400.000000,-400.000000,-400.000000,-400.000000,6
200727074,-5.352640,7.404423,12.757063,-1.025891,-9.054852,10.080743,-400.000000,-400.000000,-400.000000,-400.000000,-400.000000,-400.000000,6
200729071,-5.358744,7.393599,12.752342,-1.017427,-9.055543,10.072970,-400.000000,-400.000000,-400.000000,-400.000000,-400.000000,-400.000000,6
200731070,-5.352497,7.396698,12.749195,-1.022100,-9.050846,10.072947,-400.000000,-400.000000,-400.000000,-400.000000,-400.000000,-400.000000,6
200733065,-5.345106,7.405758,12.750864,-1.030326,-9.047985,10.078311,-400.000000,-400.000000,-400.000000,-400.000000,-400.000000,-400.000000,6
200735062,-5.337572,7.419586,12.757158,-1.041007,-9.047365,10.088372,-400.000000,-400.000000,-400.000000,-400.000000,-400.000000,-400.000000,6
200737059,-5.339479,7.432985,12.772465,-1.046753,-9.055972,10.102725,-400.000000,-400.000000,-400.000000,-400.000000,-400.000000,-400.000000,6
200739056,-5.355024,7.426739,12.781763,-1.035857,-9.068394,10.104251,-400.000000,-400.000000,-400.000000,-400.000000,-400.000000,-400.000000,6
200741053,-5.363369,7.419777,12.783146,-1.028204,-9.073257,10.101461,-400.000000,-400.000000,-400.000000,-400.000000,-400.000000,-400.000000,6
200743050,-5.378342,7.418442,12.796783,-1.020050,-9.087563,10.107613,-400.000000,-400.000000,-400.000000,-400.000000,-400.000000,-400.000000,6
200745047,-5.392218,7.429314,12.821531,-1.018548,-9.106874,10.125422,-400.000000,-400.000000,-400.000000,-400.000000,-400.000000,-400.000000,6
200747044,-5.397558,7.436562,12.834120,-1.019502,-9.115839,10.135341,-400.000000,-400.000000,-400.000000,-400.000000,-400.000000,-400.000000,6
200749041,-5.398798,7.423925,12.822723,-1.012564,-9.110761,10.123324,-400.000000,-400.000000,-400.000000,-400.000000,-400.000000,-400.000000,6
200751039,-5.398703,7.419443,12.818146,-1.010370,-9.108424,10.118794,-400.000000,-400.000000,-400.000000,-400.000000,-400.000000,-400.000000,6
200753036,-5.388689,7.426500,12.815189,-1.018906,-9.101939,10.120845,-400.000000,-400.000000,-400.000000,-400.000000,-400.000000,-400.000000,6
200755032,-5.387592,7.454538,12.842131,-1.033473,-9.114861,10.148335,-400.000000,-400.000000,-400.000000,-400.000000,-400.000000,-400.000000,6
200757030,-5.361700,7.484913,12.846613,-1.061606,-9.104156,10.165763,-400.000000,-400.000000,-400.000000,-400.000000,-400.000000,-400.000000,6
200759027,-5.306721,7.510376,12.817097,-1.101828,-9.061909,10.163736,-400.000000,-400.000000,-400.000000,-400.000000,-400.000000,-400.000000,6
200761024,-5.310106,7.514811,12.824917,-1.102352,-9.067512,10.169864,-400.000000,-400.000000,-400.000000,-400.000000,-400.000000,-400.000000,6
200763021,-5.332756,7.496738,12.829494,-1.081991,-9.081125,10.163116,-400.000000,-400.000000,-400.000000,-400.000000,-400.000000,-400.000000,6
200765018,-5.339193,7.474804,12.813997,-1.067805,-9.076595,10.144401,-400.000000,-400.000000,-400.000000,-400.000000,-400.000000,-400.000000,6
200767015,-5.326366,7.445765,12.772131,-1.059699,-9.049249,10.108948,-400.000000,-400.000000,-400.000000,-400.000000,-400.000000,-400.000000,6
200769013,-5.319214,7.428694,12.747908,-1.054740,-9.033561,10.088301,-400.000000,-400.000000,-400.000000,-400.000000,-400.000000,-400.000000,6
200771010,-5.319214,7.432508,12.751722,-1.056647,-9.035468,10.092115,-400.000000,-400.000000,-400.000000,-400.000000,-400.000000,-400.000000,6
200773007,-5.319405,7.433414,12.752819,-1.057005,-9.036112,10.093117,-400.000000,-400.000000,-400.000000,-400.000000,-400.000000,-400.000000,6
200775004,-5.320692,7.447863,12.768555,-1.063585,-9.044623,10.108209,-400.000000,-400.000000,-400.000000,-400.000000,-400.000000,-400.000000,6
200777001,-5.326509,7.476282,12.802792,-1.074886,-9.064651,10.139537,-400.000000,-400.000000,-400.000000,-400.000000,-400.000000,-400.000000,6
200778998,-5.340290,7.495260,12.835550,-1.077485,-9.087920,10.165405,-400.000000,-400.000000,-400.000000,-400.000000,-400.000000,-400.000000,6
200780995,-5.340862,7.535124,12.875986,-1.097131,-9.108424,10.205555,-400.000000,-400.000000,-400.000000,-400.000000,-400.000000,-400.000000,6
200782992,-5.298138,7.552576,12.850714,-1.127219,-9.074426,10.201645,-400.000000,-400.000000,-400.000000,-400.000000,-400.000000,-400.000000,6
200784989,-5.262184,7.539082,12.801266,-1.138449,-9.031725,10.170174,-400.000000,-400.000000,-400.000000,-400.000000,-400.000000,-400.000000,6
200786986,-5.253935,7.519150,12.773085,-1.132607,-9.013510,10.146117,-400.000000,-400.000000,-400.000000,-400.000000,-400.000000,-400.000000,6
200788984,-5.272722,7.498217,12.770939,-1.112747,-9.021831,10.134578,-400.000000,-400.000000,-400.000000,-400.000000,-400.000000,-400.000000,6
200790981,-5.274534,7.499981,12.774515,-1.112723,-9.024525,10.137248,-400.000000,-400.000000,-400.000000,-400.000000,-400.000000,-400.000000,6
200792977,-5.262232,7.516956,12.779188,-1.127362,-9.020710,10.148072,-400.000000,-400.000000,-400.000000,-400.000000,-400.000000,-400.000000,6
200794975,-5.255604,7.540655,12.796259,-1.142526,-9.025931,10.168457,-400.000000,-400.000000,-400.000000,-400.000000,-400.000000,-400.000000,6
200796972,-5.240726,7.575178,12.815905,-1.167226,-9.028316,10.195541,-400.000000,-400.000000,-400.000000,-400.000000,-400.000000,-400.000000,6
200798969,-5.218363,7.600451,12.818813,-1.191044,-9.018588,10.209632,-400.000000,-400.000000,-400.000000,-400.000000,-400.000000,-400.000000,6
200800966,-5.200624,7.603836,12.804461,-1.201606,-9.002542,10.204148,-400.000000,-400.000000,-400.000000,-400.000000,-400.000000,-400.000000,6
200802963,-5.192518,7.595730,12.788248,-1.201606,-8.990383,10.191989,-400.000000,-400.000000,-400.000000,-400.000000,-400.000000,-400.000000,6
200804960,-5.212831,7.582617,12.795448,-1.184893,-9.004140,10.189033,-400.000000,-400.000000,-400.000000,-400.000000,-400.000000,-400.000000,6
200806957,-5.235052,7.569122,12.804174,-1.167035,-9.019613,10.186648,-400.000000,-400.000000,-400.000000,-400.000000,-400.000000,-400.000000,6
200808954,-5.239201,7.564688,12.803888,-1.162744,-9.021544,10.184288,-400.000000,-400.000000,-400.000000,-400.000000,-400.000000,-400.000000,6
200810952,-5.246019,7.577467,12.823486,-1.165724,-9.034753,10.200477,-400.000000,-400.000000,-400.000000,-400.000000,-400.000000,-400.000000,6
200812949,-5.233479,7.603741,12.837219,-1.185131,-9.035349,10.220480,-400.000000,-400.000000,-400.000000,-400.000000,-400.000000,-400.000000,6
200814946,-5.213022,7.631159,12.844181,-1.209068,-9.028602,10.237670,-400.000000,-400.000000,-400.000000,-400.000000,-400.000000,-400.000000,6
200816943,-5.192471,7.658339,12.850809,-1.232934,-9.021640,10.254574,-400.000000,-400.000000,-400.000000,-400.000000,-400.000000,-400.000000,6
200818940,-5.157423,7.676888,12.834311,-1.259732,-8.995867,10.255599,-400.000000,-400.000000,-400.000000,-400.000000,-400.000000,-400.000000,6
200820937,-5.156040,7.695723,12.851763,-1.269841,-9.003901,10.273743,-400.000000,-400.000000,-400.000000,-400.000000,-400.000000,-400.000000,6
200822936,-5.166006,7.710981,12.876987,-1.272488,-9.021497,10.293984,-400.000000,-400.000000,-400.000000,-400.000000,-400.000000,-400.000000,6
200824935,-5.158377,7.700872,12.859249,-1.271248,-9.008813,10.280061,-400.000000,-400.000000,-400.000000,-400.000000,-400.000000,-400.000000,6
200826932,-5.162096,7.692623,12.854719,-1.265264,-9.008408,10.273671,-400.000000,-400.000000,-400.000000,-400.000000,-400.000000,-400.000000,6
200828929,-5.157804,7.694054,12.851858,-1.268125,-9.004831,10.272956,-400.000000,-400.000000,-400.000000,-400.000000,-400.000000,-400.000000,6
200830928,-5.136776,7.701826,12.838602,-1.282525,-8.987689,10.270214,-400.000000,-400.000000,-400.000000,-400.000000,-400.000000,-400.000000,6
200832924,-5.131483,7.719326,12.850809,-1.293921,-8.991146,10.285068,-400.000000,-400.000000,-400.000000,-400.000000,-400.000000,-400.000000,6
200834921,-5.137253,7.743359,12.880611,-1.303053,-9.008932,10.311985,-400.000000,-400.000000,-400.000000,-400.000000,-400.000000,-400.000000,6
200836918,-5.126476,7.760334,12.886810,-1.316929,-9.006643,10.323572,-400.000000,-400.000000,-400.000000,-400.000000,-400.000000,-400.000000,6
200838915,-5.120850,7.784986,12.905836,-1.332068,-9.013343,10.345411,-400.000000,-400.000000,-400.000000,-400.000000,-400.000000,-400.000000,6
200840912,-5.098772,7.794762,12.893534,-1.347995,-8.996153,10.344148,-400.000000,-400.000000,-400.000000,-400.000000,-400.000000,-400.000000,6
200842909,-5.102730,7.795382,12.898111,-1.346326,-9.000421,10.346746,-400.000000,-400.000000,-400.000000,-400.000000,-400.000000,-400.000000,6
200844907,-5.114508,7.790232,12.904739,-1.337862,-9.009624,10.347486,-400.000000,-400.000000,-400.000000,-400.000000,-400.000000,-400.000000,6
200846904,-5.107832,7.779598,12.887430,-1.335883,-8.997631,10.333514,-400.000000,-400.000000,-400.000000,-400.000000,-400.000000,-400.000000,6
200848901,-5.098295,7.765961,12.864256,-1.333833,-8.981276,10.315108,-400.000000,-400.000000,-400.000000,-400.000000,-400.000000,-400.000000,6
200850899,-5.104733,7.764482,12.869215,-1.329875,-8.986974,10.316849,-400.000000,-400.000000,-400.000000,-400.000000,-400.000000,-400.000000,6
200852895,-5.098152,7.792616,12.890768,-1.347232,-8.994460,10.341692,-400.000000,-400.000000,-400.000000,-400.000000,-400.000000,-400.000000,6
200854892,-5.090427,7.829714,12.920141,-1.369643,-9.005284,10.374928,-400.000000,-400.000000,-400.000000,-400.000000,-400.000000,-400.000000,6
200856889,-5.092239,7.844830,12.937069,-1.376295,-9.014654,10.390949,-400.000000,-400.000000,-400.000000,-400.000000,-400.000000,-400.000000,6
200858886,-5.099344,7.844400,12.943745,-1.372528,-9.021544,10.394073,-400.000000,-400.000000,-400.000000,-400.000000,-400.000000,-400.000000,6
200860884,-5.092669,7.854605,12.947273,-1.380968,-9.019971,10.400939,-400.000000,-400.000000,-400.000000,-400.000000,-400.000000,-400.000000,6
200862881,-5.107450,7.857561,12.965012,-1.375055,-9.036231,10.411286,-400.000000,-400.000000,-400.000000,-400.000000,-400.000000,-400.000000,6
200864878,-5.121517,7.821941,12.943459,-1.350212,-9.032488,10.382700,-400.000000,-400.000000,-400.000000,-400.000000,-400.000000,-400.000000,6
200866875,-5.142164,7.778358,12.920523,-1.318097,-9.031343,10.349441,-400.000000,-400.000000,-400.000000,-400.000000,-400.000000,-400.000000,6
200868872,-5.157995,7.766771,12.924767,-1.304388,-9.041381,10.345769,-400.000000,-400.000000,-400.000000,-400.000000,-400.000000,-400.000000,6
200870870,-5.165815,7.782602,12.948418,-1.308393,-9.057117,10.365510,-400.000000,-400.000000,-400.000000,-400.000000,-400.000000,-400.000000,6
200872866,-5.161572,7.797575,12.959146,-1.318002,-9.060359,10.378361,-400.000000,-400.000000,-400.000000,-400.000000,-400.000000,-400.000000,6
200874863,-5.160141,7.817698,12.977839,-1.328778,-9.068990,10.397768,-400.000000,-400.000000,-400.000000,-400.000000,-400.000000,-400.000000,6
200876860,-5.168819,7.818508,12.987328,-1.324844,-9.078074,10.402918,-400.000000,-400.000000,-400.000000,-400.000000,-400.000000,-400.000000,6
200878858,-5.169201,7.810020,12.979221,-1.320410,-9.074211,10.394621,-400.000000,-400.000000,-400.000000,-400.000000,-400.000000,-400.000000,6
200880855,-5.172729,7.795048,12.967777,-1.311159,-9.070253,10.381413,-400.000000,-400.000000,-400.000000,-400.000000,-400.000000,-400.000000,6
200882853,-5.190659,7.777596,12.968254,-1.293468,-9.079456,10.372925,-400.000000,-400.000000,-400.000000,-400.000000,-400.000000,-400.000000,6
200884850,-5.213976,7.744694,12.958670,-1.265359,-9.086323,10.351682,-400.000000,-400.000000,-400.000000,-400.000000,-400.000000,-400.000000,6
200886847,-5.216408,7.702398,12.918806,-1.242995,-9.067607,10.310602,-400.000000,-400.000000,-400.000000,-400.000000,-400.000000,-400.000000,6
200888845,-5.213928,7.660103,12.874031,-1.223087,-9.043980,10.267067,-400.000000,-400.000000,-400.000000,-400.000000,-400.000000,-400.000000,6
200890842,-5.217838,7.634449,12.852287,-1.208305,-9.035063,10.243368,-400.000000,-400.000000,-400.000000,-400.000000,-400.000000,-400.000000,6
200892838,-5.220652,7.628632,12.849283,-1.203990,-9.034967,10.238957,-400.000000,-400.000000,-400.000000,-400.000000,-400.000000,-400.000000,6
200894836,-5.211926,7.649374,12.861300,-1.218724,-9.036613,10.255337,-400.000000,-400.000000,-400.000000,-400.000000,-400.000000,-400.000000,6
200896833,-5.216980,7.658863,12.875843,-1.220942,-9.046412,10.267353,-400.000000,-400.000000,-400.000000,-400.000000,-400.000000,-400.000000,6
200898830,-5.236530,7.640505,12.877035,-1.201987,-9.056783,10.258770,-400.000000,-400.000000,-400.000000,-400.000000,-400.000000,-400.000000,6
200900827,-5.251074,7.600355,12.851429,-1.174641,-9.051251,10.225892,-400.000000,-400.000000,-400.000000,-400.000000,-400.000000,-400.000000,6
200902824,-5.269337,7.557058,12.826395,-1.143861,-9.047866,10.191727,-400.000000,-400.000000,-400.000000,-400.000000,-400.000000,-400.000000,6
200904821,-5.297756,7.535410,12.833166,-1.118827,-9.065461,10.184288,-400.000000,-400.000000,-400.000000,-400.000000,-400.000000,-400.000000,6
200906818,-5.314875,7.506323,12.821198,-1.095724,-9.068036,10.163760,-400.000000,-400.000000,-400.000000,-400.000000,-400.000000,-400.000000,6
200908814,-5.332756,7.466555,12.799311,-1.066899,-9.066033,10.132933,-400.000000,-400.000000,-400.000000,-400.000000,-400.000000,-400.000000,6
200910812,-5.346489,7.451153,12.797642,-1.052332,-9.072065,10.124397,-400.000000,-400.000000,-400.000000,-400.000000,-400.000000,-400.000000,6
200912808,-5.354691,7.449579,12.804270,-1.047444,-9.079480,10.126925,-400.000000,-400.000000,-400.000000,-400.000000,-400.000000,-400.000000,6
200914805,-5.344009,7.452297,12.796307,-1.054144,-9.070158,10.124302,-400.000000,-400.000000,-400.000000,-400.000000,-400.000000,-400.000000,6
200916802,-5.337429,7.446289,12.783718,-1.054430,-9.060574,10.115004,-400.000000,-400.000000,-400.000000,-400.000000,-400.000000,-400.000000,6
200918799,-5.358315,7.437801,12.796116,-1.039743,-9.077215,10.116959,-400.000000,-400.000000,-400.000000,-400.000000,-400.000000,-400.000000,6
200920796,-5.360460,7.439899,12.800360,-1.039720,-9.080410,10.120130,-400.000000,-400.000000,-400.000000,-400.000000,-400.000000,-400.000000,6
200922793,-5.373669,7.440519,12.814188,-1.033425,-9.093928,10.127354,-400.000000,-400.000000,-400.000000,-400.000000,-400.000000,-400.000000,6
200924790,-5.401754,7.414293,12.816048,-1.006269,-9.108901,10.115170,-400.000000,-400.000000,-400.000000,-400.000000,-400.000000,-400.000000,6
200926790,-5.431318,7.372236,12.803555,-0.970459,-9.117436,10.087895,-400.000000,-400.000000,-400.000000,-400.000000,-400.000000,-400.000000,6
200928787,-5.442333,7.339382,12.781715,-0.948524,-9.112024,10.060549,-400.000000,-400.000000,-400.000000,-400.000000,-400.000000,-400.000000,6
200930786,-5.448627,7.318163,12.766790,-0.934768,-9.107709,10.042477,-400.000000,-400.000000,-400.000000,-400.000000,-400.000000,-400.000000,6
200932781,-5.456877,7.307339,12.764215,-0.925231,-9.110546,10.035777,-400.000000,-400.000000,-400.000000,-400.000000,-400.000000,-400.000000,6
200934777,-5.441046,7.315683,12.756729,-0.937319,-9.098887,10.036206,-400.000000,-400.000000,-400.000000,-400.000000,-400.000000,-400.000000,6
200936774,-5.424643,7.331181,12.755823,-0.953269,-9.090233,10.043502,-400.000000,-400.000000,-400.000000,-400.000000,-400.000000,-400.000000,6
200938771,-5.427122,7.343245,12.770367,-0.958061,-9.098744,10.056806,-400.000000,-400.000000,-400.000000,-400.000000,-400.000000,-400.000000,6
200940768,-5.418873,7.339525,12.758398,-0.960326,-9.088635,10.048962,-400.000000,-400.000000,-400.000000,-400.000000,-400.000000,-400.000000,6
200942765,-5.424881,7.322216,12.747097,-0.948668,-9.085989,10.034657,-400.000000,-400.000000,-400.000000,-400.000000,-400.000000,-400.000000,6
200944762,-5.435133,7.278252,12.713385,-0.921559,-9.074259,9.995818,-400.000000,-400.000000,-400.000000,-400.000000,-400.000000,-400.000000,6
200946759,-5.460405,7.242012,12.702417,-0.890803,-9.081411,9.972215,-400.000000,-400.000000,-400.000000,-400.000000,-400.000000,-400.000000,6
200948756,-5.460930,7.227898,12.688828,-0.883484,-9.074879,9.958363,-400.000000,-400.000000,-400.000000,-400.000000,-400.000000,-400.000000,6
200950753,-5.457211,7.265186,12.722397,-0.903988,-9.089804,9.993792,-400.000000,-400.000000,-400.000000,-400.000000,-400.000000,-400.000000,6
200952750,-5.475235,7.300568,12.775803,-0.912666,-9.125519,10.038185,-400.000000,-400.000000,-400.000000,-400.000000,-400.000000,-400.000000,6
200954747,-5.499172,7.323408,12.822580,-0.912118,-9.160876,10.072994,-400.000000,-400.000000,-400.000000,-400.000000,-400.000000,-400.000000,6
200956744,-5.493259,7.337523,12.830782,-0.922132,-9.162021,10.084152,-400.000000,-400.000000,-400.000000,-400.000000,-400.000000,-400.000000,6
200958740,-5.510998,7.336664,12.847662,-0.912833,-9.179330,10.092163,-400.000000,-400.000000,-400.000000,-400.000000,-400.000000,-400.000000,6
200960737,-5.520964,7.328558,12.849522,-0.903797,-9.185243,10.089040,-400.000000,-400.000000,-400.000000,-400.000000,-400.000000,-400.000000,6
200962734,-5.508614,7.307196,12.815809,-0.899291,-9.162211,10.061502,-400.000000,-400.000000,-400.000000,-400.000000,-400.000000,-400.000000,6
200964731,-5.470800,7.286930,12.757730,-0.908065,-9.114265,10.022330,-400.000000,-400.000000,-400.000000,-400.000000,-400.000000,-400.000000,6
200966728,-5.445862,7.277822,12.723684,-0.915980,-9.084773,10.000753,-400.000000,-400.000000,-400.000000,-400.000000,-400.000000,-400.000000,6
200968725,-5.432987,7.282877,12.715864,-0.924945,-9.074426,9.999371,-400.000000,-400.000000,-400.000000,-400.000000,-400.000000,-400.000000,6
200970723,-5.426693,7.289886,12.716579,-0.931597,-9.071636,10.003233,-400.000000,-400.000000,-400.000000,-400.000000,-400.000000,-400.000000,6
200972719,-5.420780,7.288885,12.709665,-0.934052,-9.065223,9.999275,-400.000000,-400.000000,-400.000000,-400.000000,-400.000000,-400.000000,6
200974716,-5.412579,7.306767,12.719345,-0.947094,-9.065962,10.013056,-400.000000,-400.000000,-400.000000,-400.000000,-400.000000,-400.000000,6
200976713,-5.396080,7.319546,12.715626,-0.961733,-9.055853,10.017586,-400.000000,-400.000000,-400.000000,-400.000000,-400.000000,-400.000000,6
200978710,-5.404329,7.309484,12.713814,-0.952578,-9.059072,10.011649,-400.000000,-400.000000,-400.000000,-400.000000,-400.000000,-400.000000,6
200980707,-5.404043,7.312250,12.716293,-0.954103,-9.060168,10.014272,-400.000000,-400.000000,-400.000000,-400.000000,-400.000000,-400.000000,6
200982704,-5.403471,7.318306,12.721777,-0.957417,-9.062624,10.020041,-400.000000,-400.000000,-400.000000,-400.000000,-400.000000,-400.000000,6
200984701,-5.425024,7.320547,12.745571,-0.947762,-9.085298,10.033059,-400.000000,-400.000000,-400.000000,-400.000000,-400.000000,-400.000000,6
200986698,-5.419922,7.310009,12.729931,-0.945044,-9.074926,10.019970,-400.000000,-400.000000,-400.000000,-400.000000,-400.000000,-400.000000,6
200988696,-5.426455,7.290030,12.716484,-0.931787,-9.071469,10.003257,-400.000000,-400.000000,-400.000000,-400.000000,-400.000000,-400.000000,6
200990692,-5.428410,7.283401,12.711811,-0.927496,-9.070110,9.997606,-400.000000,-400.000000,-400.000000,-400.000000,-400.000000,-400.000000,6
200992689,-5.415392,7.275200,12.690592,-0.929904,-9.052992,9.982896,-400.000000,-400.000000,-400.000000,-400.000000,-400.000000,-400.000000,6
200994685,-5.415249,7.293177,12.708426,-0.938964,-9.061837,10.000801,-400.000000,-400.000000,-400.000000,-400.000000,-400.000000,-400.000000,6
200996682,-5.423069,7.308149,12.731218,-0.942540,-9.077144,10.019684,-400.000000,-400.000000,-400.000000,-400.000000,-400.000000,-400.000000,6
200998679,-5.437899,7.300663,12.738562,-0.931382,-9.088230,10.019612,-400.000000,-400.000000,-400.000000,-400.000000,-400.000000,-400.000000,6
201000676,-5.460787,7.281256,12.742043,-0.910234,-9.101415,10.011649,-400.000000,-400.000000,-400.000000,-400.000000,-400.000000,-400.000000,6
201002673,-5.472422,7.280159,12.752581,-0.903869,-9.112501,10.016370,-400.000000,-400.000000,-400.000000,-400.000000,-400.000000,-400.000000,6
201004670,-5.466461,7.283497,12.749958,-0.908518,-9.108210,10.016727,-400.000000,-400.000000,-400.000000,-400.000000,-400.000000,-400.000000,6
201006667,-5.458927,7.294512,12.753439,-0.917792,-9.106183,10.023975,-400.000000,-400.000000,-400.000000,-400.000000,-400.000000,-400.000000,6
201008664,-5.447531,7.302189,12.749720,-0.927329,-9.098625,10.025954,-400.000000,-400.000000,-400.000000,-400.000000,-400.000000,-400.000000,6
201010662,-5.442810,7.291460,12.734270,-0.924325,-9.088540,10.012865,-400.000000,-400.000000,-400.000000,-400.000000,-400.000000,-400.000000,6
201012658,-5.436373,7.301760,12.738132,-0.932693,-9.087253,10.019946,-400.000000,-400.000000,-400.000000,-400.000000,-400.000000,-400.000000,6
201014655,-5.430460,7.315302,12.745762,-0.942421,-9.088111,10.030532,-400.000000,-400.000000,-400.000000,-400.000000,-400.000000,-400.000000,6
201016652,-5.423021,7.335472,12.758493,-0.956225,-9.090757,10.046983,-400.000000,-400.000000,-400.000000,-400.000000,-400.000000,-400.000000,6
201018649,-5.420637,7.345486,12.766123,-0.962424,-9.093380,10.055804,-400.000000,-400.000000,-400.000000,-400.000000,-400.000000,-400.000000,6
201020646,-5.448341,7.340384,12.788725,-0.946021,-9.118533,10.064554,-400.000000,-400.000000,-400.000000,-400.000000,-400.000000,-400.000000,6
201022643,-5.480385,7.314825,12.795210,-0.917220,-9.137797,10.055017,-400.000000,-400.000000,-400.000000,-400.000000,-400.000000,-400.000000,6
201024640,-5.493259,7.281733,12.774992,-0.894237,-9.134126,10.028362,-400.000000,-400.000000,-400.000000,-400.000000,-400.000000,-400.000000,6
201026637,-5.489635,7.272482,12.762117,-0.891423,-9.125876,10.017300,-400.000000,-400.000000,-400.000000,-400.000000,-400.000000,-400.000000,6
201028638,-5.479383,7.283831,12.763214,-0.902224,-9.121299,10.023522,-400.000000,-400.000000,-400.000000,-400.000000,-400.000000,-400.000000,6
201030637,-5.475235,7.291079,12.766314,-0.907922,-9.120774,10.028696,-400.000000,-400.000000,-400.000000,-400.000000,-400.000000,-400.000000,6
201032632,-5.456638,7.293367,12.750006,-0.918365,-9.103322,10.021687,-400.000000,-400.000000,-400.000000,-400.000000,-400.000000,-400.000000,6
201034629,-5.419445,7.308054,12.727499,-0.944304,-9.073472,10.017776,-400.000000,-400.000000,-400.000000,-400.000000,-400.000000,-400.000000,6
201036626,-5.407381,7.321692,12.729073,-0.957155,-9.068227,10.025382,-400.000000,-400.000000,-400.000000,-400.000000,-400.000000,-400.000000,6
201038623,-5.402803,7.344151,12.746954,-0.970674,-9.074879,10.045552,-400.000000,-400.000000,-400.000000,-400.000000,-400.000000,-400.000000,6
201040621,-5.421877,7.343483,12.765360,-0.960803,-9.093618,10.054421,-400.000000,-400.000000,-400.000000,-400.000000,-400.000000,-400.000000,6
201042618,-5.450583,7.326794,12.777376,-0.938106,-9.113979,10.052085,-400.000000,-400.000000,-400.000000,-400.000000,-400.000000,-400.000000,6
201044615,-5.453300,7.304144,12.757444,-0.925422,-9.105372,10.030794,-400.000000,-400.000000,-400.000000,-400.000000,-400.000000,-400.000000,6
201046612,-5.427170,7.286215,12.713385,-0.929523,-9.070277,9.999800,-400.000000,-400.000000,-400.000000,-400.000000,-400.000000,-400.000000,6
201048609,-5.417490,7.258892,12.676382,-0.920701,-9.046936,9.967637,-400.000000,-400.000000,-400.000000,-400.000000,-400.000000,-400.000000,6
201050607,-5.410767,7.246685,12.657452,-0.917959,-9.034109,9.952068,-400.000000,-400.000000,-400.000000,-400.000000,-400.000000,-400.000000,6
201052605,-5.382967,7.273197,12.656164,-0.945115,-9.019566,9.964681,-400.000000,-400.000000,-400.000000,-400.000000,-400.000000,-400.000000,6
201054601,-5.360174,7.310963,12.671137,-0.975394,-9.015656,9.991050,-400.000000,-400.000000,-400.000000,-400.000000,-400.000000,-400.000000,6
201056599,-5.349159,7.343912,12.693071,-0.997376,-9.021115,10.018492,-400.000000,-400.000000,-400.000000,-400.000000,-400.000000,-400.000000,6
201058595,-5.349636,7.346392,12.696028,-0.998378,-9.022832,10.021210,-400.000000,-400.000000,-400.000000,-400.000000,-400.000000,-400.000000,6
201060593,-5.356598,7.328892,12.685490,-0.986147,-9.021044,10.007191,-400.000000,-400.000000,-400.000000,-400.000000,-400.000000,-400.000000,6
201062590,-5.378151,7.310629,12.688780,-0.966239,-9.033465,9.999704,-400.000000,-400.000000,-400.000000,-400.000000,-400.000000,-400.000000,6
201064587,-5.398464,7.300949,12.699413,-0.951242,-9.048939,10.000181,-400.000000,-400.000000,-400.000000,-400.000000,-400.000000,-400.000000,6
201066584,-5.411196,7.301283,12.712479,-0.945044,-9.061837,10.006881,-400.000000,-400.000000,-400.000000,-400.000000,-400.000000,-400.000000,6
201068581,-5.428553,7.289791,12.718344,-0.930619,-9.073448,10.004067,-400.000000,-400.000000,-400.000000,-400.000000,-400.000000,-400.000000,6
201070579,-5.435801,7.280016,12.715816,-0.922108,-9.075809,9.997916,-400.000000,-400.000000,-400.000000,-400.000000,-400.000000,-400.000000,6
201072576,-5.431414,7.279825,12.711239,-0.924206,-9.071326,9.995532,-400.000000,-400.000000,-400.000000,-400.000000,-400.000000,-400.000000,6
201074573,-5.428171,7.293892,12.722063,-0.932860,-9.075117,10.007977,-400.000000,-400.000000,-400.000000,-400.000000,-400.000000,-400.000000,6
201076570,-5.432987,7.311964,12.744951,-0.939488,-9.088969,10.028458,-400.000000,-400.000000,-400.000000,-400.000000,-400.000000,-400.000000,6
201078567,-5.430365,7.312346,12.742710,-0.940990,-9.086537,10.027528,-400.000000,-400.000000,-400.000000,-400.000000,-400.000000,-400.000000,6
201080564,-5.422163,7.302761,12.724924,-0.940299,-9.073544,10.013843,-400.000000,-400.000000,-400.000000,-400.000000,-400.000000,-400.000000,6
201082561,-5.420399,7.290697,12.711096,-0.935149,-9.065747,10.000896,-400.000000,-400.000000,-400.000000,-400.000000,-400.000000,-400.000000,6
201084557,-5.433083,7.275200,12.708282,-0.921059,-9.070683,9.991741,-400.000000,-400.000000,-400.000000,-400.000000,-400.000000,-400.000000,6
201086554,-5.440855,7.253456,12.694311,-0.906301,-9.067583,9.973884,-400.000000,-400.000000,-400.000000,-400.000000,-400.000000,-400.000000,6
201088552,-5.441523,7.229137,12.670660,-0.893807,-9.056091,9.949899,-400.000000,-400.000000,-400.000000,-400.000000,-400.000000,-400.000000,6
201090549,-5.437994,7.223845,12.661839,-0.892925,-9.049916,9.942842,-400.000000,-400.000000,-400.000000,-400.000000,-400.000000,-400.000000,6
201092545,-5.434942,7.250214,12.685156,-0.907636,-9.060049,9.967685,-400.000000,-400.000000,-400.000000,-400.000000,-400.000000,-400.000000,6
201094542,-5.427551,7.286358,12.713909,-0.929403,-9.070730,10.000134,-400.000000,-400.000000,-400.000000,-400.000000,-400.000000,-400.000000,6
201096539,-5.421019,7.287884,12.708902,-0.933433,-9.064960,9.998393,-400.000000,-400.000000,-400.000000,-400.000000,-400.000000,-400.000000,6
201098536,-5.420399,7.278919,12.699318,-0.929260,-9.059858,9.989119,-400.000000,-400.000000,-400.000000,-400.000000,-400.000000,-400.000000,6
201100533,-5.427074,7.275534,12.702608,-0.924230,-9.064841,9.989071,-400.000000,-400.000000,-400.000000,-400.000000,-400.000000,-400.000000,6
201102530,-5.441713,7.268667,12.710381,-0.913477,-9.076047,9.989524,-400.000000,-400.000000,-400.000000,-400.000000,-400.000000,-400.000000,6
201104527,-5.458164,7.259035,12.717199,-0.900435,-9.087682,9.988117,-400.000000,-400.000000,-400.000000,-400.000000,-400.000000,-400.000000,6
201106523,-5.473948,7.252836,12.726784,-0.889444,-9.100366,9.989810,-400.000000,-400.000000,-400.000000,-400.000000,-400.000000,-400.000000,6
201108521,-5.483484,7.241297,12.724781,-0.878906,-9.104133,9.983039,-400.000000,-400.000000,-400.000000,-400.000000,-400.000000,-400.000000,6
201110519,-5.479860,7.239056,12.718916,-0.879598,-9.099388,9.978986,-400.000000,-400.000000,-400.000000,-400.000000,-400.000000,-400.000000,6
201112514,-5.464125,7.252741,12.716866,-0.894308,-9.090495,9.984803,-400.000000,-400.000000,-400.000000,-400.000000,-400.000000,-400.000000,6
201114511,-5.432749,7.271624,12.704372,-0.919437,-9.068561,9.987998,-400.000000,-400.000000,-400.000000,-400.000000,-400.000000,-400.000000,6
201116508,-5.414772,7.285881,12.700653,-0.935555,-9.057713,9.993267,-400.000000,-400.000000,-400.000000,-400.000000,-400.000000,-400.000000,6
201118505,-5.406857,7.283211,12.690067,-0.938177,-9.048462,9.986639,-400.000000,-400.000000,-400.000000,-400.000000,-400.000000,-400.000000,6
201120502,-5.406523,7.277822,12.684345,-0.935650,-9.045434,9.981084,-400.000000,-400.000000,-400.000000,-400.000000,-400.000000,-400.000000,6
201122498,-5.413103,7.284927,12.698030,-0.935912,-9.055567,9.991479,-400.000000,-400.000000,-400.000000,-400.000000,-400.000000,-400.000000,6
201124495,-5.419111,7.273340,12.692451,-0.927114,-9.055781,9.982896,-400.000000,-400.000000,-400.000000,-400.000000,-400.000000,-400.000000,6
201126492,-5.427456,7.246304,12.673759,-0.909424,-9.050608,9.960032,-400.000000,-400.000000,-400.000000,-400.000000,-400.000000,-400.000000,6
201128489,-5.438566,7.219505,12.658072,-0.890470,-9.048319,9.938788,-400.000000,-400.000000,-400.000000,-400.000000,-400.000000,-400.000000,6
201130488,-5.443144,7.226181,12.669325,-0.891519,-9.056234,9.947753,-400.000000,-400.000000,-400.000000,-400.000000,-400.000000,-400.000000,6
201132490,-5.444574,7.243633,12.688208,-0.899529,-9.066391,9.965920,-400.000000,-400.000000,-400.000000,-400.000000,-400.000000,-400.000000,6
201134484,-5.445242,7.244253,12.689495,-0.899506,-9.067369,9.966874,-400.000000,-400.000000,-400.000000,-400.000000,-400.000000,-400.000000,6
201136481,-5.432892,7.267952,12.700844,-0.917530,-9.066868,9.984398,-400.000000,-400.000000,-400.000000,-400.000000,-400.000000,-400.000000,6
201138478,-5.429792,7.279682,12.709475,-0.924945,-9.069633,9.994578,-400.000000,-400.000000,-400.000000,-400.000000,-400.000000,-400.000000,6
201140475,-5.419445,7.278919,12.698364,-0.929737,-9.058905,9.988642,-400.000000,-400.000000,-400.000000,-400.000000,-400.000000,-400.000000,6
201142472,-5.417871,7.272863,12.690735,-0.927496,-9.054303,9.981799,-400.000000,-400.000000,-400.000000,-400.000000,-400.000000,-400.000000,6
201144469,-5.424404,7.271719,12.696123,-0.923657,-9.060264,9.983921,-400.000000,-400.000000,-400.000000,-400.000000,-400.000000,-400.000000,6
201146465,-5.426741,7.248783,12.675524,-0.911021,-9.051132,9.962153,-400.000000,-400.000000,-400.000000,-400.000000,-400.000000,-400.000000,6
201148462,-5.423975,7.218647,12.642622,-0.897336,-9.033298,9.930634,-400.000000,-400.000000,-400.000000,-400.000000,-400.000000,-400.000000,6
201150461,-5.423975,7.198524,12.622499,-0.887275,-9.023237,9.910512,-400.000000,-400.000000,-400.000000,-400.000000,-400.000000,-400.000000,6
201152456,-5.420732,7.200813,12.621546,-0.890040,-9.021139,9.911180,-400.000000,-400.000000,-400.000000,-400.000000,-400.000000,-400.000000,6
201154453,-5.419922,7.221746,12.641668,-0.900912,-9.030795,9.931707,-400.000000,-400.000000,-400.000000,-400.000000,-400.000000,-400.000000,6
201156450,-5.425978,7.259560,12.685537,-0.916791,-9.055758,9.972548,-400.000000,-400.000000,-400.000000,-400.000000,-400.000000,-400.000000,6
201158447,-5.430794,7.286882,12.717676,-0.928044,-9.074235,10.002279,-400.000000,-400.000000,-400.000000,-400.000000,-400.000000,-400.000000,6
201160444,-5.437899,7.284784,12.722683,-0.923443,-9.080291,10.003734,-400.000000,-400.000000,-400.000000,-400.000000,-400.000000,-400.000000,6
201162441,-5.433035,7.244444,12.677479,-0.905704,-9.055257,9.960961,-400.000000,-400.000000,-400.000000,-400.000000,-400.000000,-400.000000,6
201164438,-5.434132,7.219744,12.653875,-0.892806,-9.044003,9.936810,-400.000000,-400.000000,-400.000000,-400.000000,-400.000000,-400.000000,6
201166435,-5.434179,7.216978,12.651157,-0.891399,-9.042668,9.934068,-400.000000,-400.000000,-400.000000,-400.000000,-400.000000,-400.000000,6
201168432,-5.446625,7.220459,12.667084,-0.886917,-9.056854,9.943771,-400.000000,-400.000000,-400.000000,-400.000000,-400.000000,-400.000000,6
201170430,-5.448341,7.216597,12.664938,-0.884128,-9.056640,9.940767,-400.000000,-400.000000,-400.000000,-400.000000,-400.000000,-400.000000,6
201172426,-5.446625,7.218313,12.664938,-0.885844,-9.055781,9.941626,-400.000000,-400.000000,-400.000000,-400.000000,-400.000000,-400.000000,6
201174424,-5.443430,7.226896,12.670326,-0.891733,-9.056878,9.948611,-400.000000,-400.000000,-400.000000,-400.000000,-400.000000,-400.000000,6
201176421,-5.435991,7.248211,12.684202,-0.906110,-9.060097,9.966207,-400.000000,-400.000000,-400.000000,-400.000000,-400.000000,-400.000000,6
201178418,-5.433702,7.272339,12.706041,-0.919318,-9.069872,9.989190,-400.000000,-400.000000,-400.000000,-400.000000,-400.000000,-400.000000,6
201180415,-5.430794,7.257986,12.688780,-0.913596,-9.059787,9.973383,-400.000000,-400.000000,-400.000000,-400.000000,-400.000000,-400.000000,6
201182411,-5.445290,7.221842,12.667131,-0.888276,-9.056211,9.944487,-400.000000,-400.000000,-400.000000,-400.000000,-400.000000,-400.000000,6
201184408,-5.455256,7.196093,12.651348,-0.870419,-9.053302,9.923720,-400.000000,-400.000000,-400.000000,-400.000000,-400.000000,-400.000000,6
201186405,-5.447769,7.203770,12.651539,-0.878000,-9.049654,9.927654,-400.000000,-400.000000,-400.000000,-400.000000,-400.000000,-400.000000,6
201188403,-5.447674,7.227612,12.675285,-0.889969,-9.061480,9.951448,-400.000000,-400.000000,-400.000000,-400.000000,-400.000000,-400.000000,6
201190400,-5.449438,7.239056,12.688494,-0.894809,-9.068966,9.963775,-400.000000,-400.000000,-400.000000,-400.000000,-400.000000,-400.000000,6
201192396,-5.452442,7.236862,12.689304,-0.892210,-9.070873,9.963083,-400.000000,-400.000000,-400.000000,-400.000000,-400.000000,-400.000000,6
201194393,-5.449629,7.236433,12.686062,-0.893402,-9.067845,9.961247,-400.000000,-400.000000,-400.000000,-400.000000,-400.000000,-400.000000,6
201196390,-5.434942,7.254028,12.688971,-0.909543,-9.061956,9.971499,-400.000000,-400.000000,-400.000000,-400.000000,-400.000000,-400.000000,6
201198387,-5.435753,7.280445,12.716198,-0.922346,-9.075975,9.998322,-400.000000,-400.000000,-400.000000,-400.000000,-400.000000,-400.000000,6
201200384,-5.450678,7.293034,12.743711,-0.921178,-9.097195,10.018373,-400.000000,-400.000000,-400.000000,-400.000000,-400.000000,-400.000000,6
201202381,-5.464935,7.283115,12.748051,-0.909090,-9.106493,10.015583,-400.000000,-400.000000,-400.000000,-400.000000,-400.000000,-400.000000,6
201204378,-5.479383,7.254267,12.733650,-0.887442,-9.106517,9.993958,-400.000000,-400.000000,-400.000000,-400.000000,-400.000000,-400.000000,6
201206375,-5.489874,7.235003,12.724876,-0.872564,-9.107375,9.979939,-400.000000,-400.000000,-400.000000,-400.000000,-400.000000,-400.000000,6
